Distance_(pixels),Gray_Value
0,4.000
1,3.994
2,3.622
3,4.286
4,4.858
5,4.235
6,3.412
7,3.684
8,4.255
9,4.977
10,4.569
11,4.244
12,3.729
13,3.933
14,3.344
15,4.040
16,4.569
17,5.334
18,6.098
19,5.958
20,4.783
21,5.333
22,5.333
23,5.229
24,4.980
25,4.107
26,2.916
27,2.934
28,3.772
29,4.333
30,4.333
31,4.333
32,4.333
33,4.333
34,4.334
35,5.099
36,4.803
37,4.333
38,4.294
39,3.509
40,2.941
41,2.902
42,3.460
43,4.846
44,5.981
45,5.920
46,5.333
47,5.236
48,5.021
49,4.222
50,4.183
51,4.131
52,4.255
53,4.333
54,4.314
55,4.754
56,4.585
57,4.966
58,4.980
59,4.372
60,4.431
61,4.778
62,4.633
63,4.598
64,4.333
65,5.040
66,4.797
67,4.570
68,5.333
69,5.333
70,4.864
71,4.797
72,4.737
73,5.390
74,5.618
75,4.762
76,4.336
77,4.333
78,4.901
79,4.418
80,4.511
81,5.072
82,5.192
83,5.545
84,5.860
85,4.333
86,4.660
87,5.191
88,3.734
89,3.372
90,3.333
91,3.540
92,3.333
93,3.413
94,3.990
95,3.272
96,3.138
97,3.333
98,3.494
99,4.276
100,4.144
101,3.878
102,5.333
103,5.206
104,5.164
105,5.333
106,4.918
107,4.316
108,4.923
109,5.333
110,5.333
111,4.857
112,4.459
113,4.538
114,4.967
115,5.924
116,6.000
117,6.000
118,5.700
119,4.305
120,4.000
121,4.000
122,4.000
123,4.182
124,4.611
125,5.242
126,5.228
127,6.535
128,6.667
129,6.527
130,5.931
131,5.469
132,5.000
133,4.800
134,4.890
135,5.242
136,6.000
137,5.704
138,5.060
139,5.123
140,5.061
141,5.826
142,5.788
143,6.355
144,7.000
145,7.000
146,6.413
147,6.434
148,6.000
149,6.000
150,6.477
151,6.510
152,6.963
153,7.606
154,7.233
155,6.523
156,5.840
157,5.186
158,5.830
159,6.475
160,7.000
161,7.000
162,6.566
163,5.667
164,5.792
165,5.488
166,4.723
167,6.267
168,6.392
169,6.045
170,6.999
171,6.024
172,5.147
173,5.444
174,6.947
175,6.824
176,7.255
177,7.644
178,7.000
179,7.000
180,7.000
181,7.000
182,7.000
183,7.000
184,6.829
185,6.769
186,6.095
187,5.997
188,5.022
189,3.550
190,4.332
191,6.006
192,6.614
193,6.638
194,6.612
195,5.285
196,5.321
197,6.570
198,6.124
199,6.537
200,6.051
201,6.709
202,6.428
203,6.000
204,6.000
205,6.000
206,6.000
207,6.000
208,6.117
209,6.497
210,6.000
211,6.237
212,6.245
213,5.691
214,5.129
215,4.849
216,5.038
217,5.808
218,6.354
219,6.045
220,5.839
221,5.854
222,4.899
223,4.667
224,4.495
225,4.728
226,4.951
227,5.358
228,6.318
229,7.468
230,7.114
231,6.429
232,5.368
233,3.900
234,3.881
235,4.456
236,4.899
237,4.372
238,5.002
239,5.000
240,5.431
241,6.344
242,5.699
243,5.259
244,5.000
245,4.881
246,4.259
247,3.522
248,3.673
249,3.667
250,3.561
251,3.520
252,4.789
253,5.565
254,5.796
255,5.328
256,4.309
257,3.842
258,3.454
259,3.991
260,5.022
261,4.622
262,4.306
263,5.061
264,4.854
265,4.588
266,4.330
267,3.904
268,4.511
269,6.079
270,6.519
271,6.000
272,5.996
273,5.231
274,5.000
275,4.702
276,4.063
277,4.393
278,5.185
279,6.066
280,6.000
281,5.909
282,5.739
283,6.000
284,6.007
285,6.643
286,6.675
287,5.862
288,5.667
289,5.405
290,4.689
291,4.667
292,4.667
293,4.667
294,4.667
295,4.915
296,5.000
297,4.878
298,4.113
299,3.694
300,3.565
301,3.995
302,4.000
303,4.792
304,5.000
305,5.571
306,6.000
307,6.000
308,6.000
309,5.701
310,4.950
311,4.776
312,6.129
313,5.018
314,4.450
315,4.591
316,5.318
317,5.667
318,5.664
319,5.667
320,4.887
321,4.648
322,4.240
323,4.285
324,4.941
325,4.466
326,4.671
327,5.936
328,5.172
329,4.391
330,4.113
331,3.918
332,3.409
333,3.768
334,4.152
335,3.879
336,2.800
337,2.700
338,3.543
339,4.240
340,5.000
341,5.000
342,4.272
343,4.000
344,4.013
345,4.254
346,4.270
347,4.274
348,4.248
349,4.661
350,4.667
351,4.431
352,4.000
353,4.506
354,4.547
355,5.310
356,4.865
357,4.995
358,4.230
359,4.116
360,3.804
361,3.832
362,4.829
363,5.565
364,6.213
365,6.877
366,6.112
367,6.507
368,8.174
369,8.455
370,7.520
371,8.107
372,7.918
373,7.014
374,8.615
375,6.969
376,7.202
377,7.667
378,7.731
379,8.278
380,8.298
381,8.667
382,8.691
383,9.413
384,9.331
385,9.358
386,10.325
387,10.667
388,9.937
389,9.190
390,8.934
391,8.667
392,8.814
393,8.953
394,9.597
395,10.177
396,9.837
397,10.261
398,10.164
399,10.514
400,9.869
401,10.031
402,9.667
403,9.667
404,9.667
405,8.969
406,9.331
407,10.068
408,9.713
409,10.265
410,9.688
411,9.287
412,8.070
413,7.159
414,7.820
415,8.324
416,8.790
417,9.555
418,10.198
419,9.224
420,8.610
421,8.684
422,8.684
423,8.523
424,9.109
425,9.667
426,9.482
427,9.135
428,8.490
429,7.879
430,7.224
431,7.018
432,7.755
433,8.275
434,8.155
435,8.400
436,7.753
437,8.464
438,7.772
439,8.461
440,9.810
441,10.333
442,10.327
443,9.562
444,9.333
445,9.394
446,9.304
447,8.488
448,8.175
449,7.614
450,6.349
451,6.975
452,8.095
453,8.333
454,6.999
455,5.610
456,4.861
457,5.477
458,6.420
459,7.823
460,7.582
461,7.274
462,6.504
463,6.333
464,6.288
465,5.856
466,6.111
467,6.450
468,7.222
469,7.244
470,6.701
471,6.890
472,7.122
473,6.378
474,6.090
475,6.043
476,5.779
477,6.000
478,6.000
479,6.000
480,5.513
481,3.893
482,4.494
483,5.225
484,6.268
485,6.849
486,5.589
487,4.946
488,5.606
489,6.132
490,5.009
491,4.579
492,4.713
493,4.671
494,5.239
495,5.870
496,6.635
497,6.981
498,5.467
499,5.491
500,5.169
501,4.822
502,4.942
503,5.084
504,5.453
505,6.000
506,6.004
507,6.238
508,6.333
509,6.270
510,5.408
511,4.658
512,6.247
513,7.333
514,7.333
515,7.333
516,7.929
517,8.203
518,8.352
519,7.841
520,7.197
521,6.552
522,7.055
523,5.550
524,6.252
525,5.855
526,5.333
527,5.341
528,6.172
529,6.333
530,6.333
531,6.385
532,6.441
533,5.529
534,5.551
535,7.059
536,8.223
537,8.333
538,8.333
539,8.219
540,8.333
541,8.099
542,8.498
543,8.090
544,7.333
545,7.582
546,8.284
547,9.011
548,9.108
549,9.050
550,9.333
551,8.856
552,7.543
553,7.468
554,7.678
555,7.795
556,8.240
557,8.993
558,9.448
559,10.185
560,10.103
561,10.268
562,11.205
563,11.850
564,12.896
565,14.608
566,13.976
567,13.917
568,14.476
569,15.469
570,17.255
571,17.994
572,17.280
573,16.962
574,17.606
575,17.314
576,17.555
577,18.332
578,17.471
579,16.829
580,17.508
581,18.705
582,20.829
583,22.238
584,22.410
585,21.784
586,21.248
587,21.219
588,21.544
589,21.250
590,21.556
591,21.731
592,21.667
593,22.700
594,24.667
595,23.666
596,24.402
597,23.776
598,24.377
599,25.670
600,26.246
601,26.273
602,27.014
603,28.759
604,31.056
605,31.919
606,31.253
607,30.808
608,31.055
609,31.739
610,32.119
611,31.495
612,31.328
613,31.259
614,29.925
615,28.898
616,28.644
617,28.389
618,28.033
619,28.282
620,29.046
621,29.865
622,29.531
623,30.809
624,31.800
625,32.556
626,32.929
627,32.405
628,32.578
629,33.345
630,34.334
631,33.816
632,32.358
633,30.200
634,27.686
635,27.749
636,29.297
637,29.804
638,28.030
639,27.825
640,26.903
641,25.000
642,25.000
643,26.542
644,26.641
645,26.042
646,25.654
647,25.647
648,25.667
649,25.786
650,26.055
651,25.906
652,25.916
653,26.362
654,27.000
655,26.984
656,26.204
657,26.443
658,26.965
659,26.021
660,24.498
661,24.672
662,24.667
663,24.389
664,26.002
665,25.539
666,24.130
667,23.492
668,22.920
669,22.268
670,22.994
671,22.725
672,23.470
673,22.922
674,22.442
675,22.700
676,23.344
677,23.881
678,23.831
679,23.117
680,23.897
681,22.058
682,21.781
683,22.769
684,23.196
685,21.587
686,20.631
687,22.047
688,23.408
689,23.264
690,22.356
691,22.057
692,22.138
693,21.774
694,21.284
695,21.000
696,21.000
697,21.040
698,24.099
699,24.460
700,24.000
701,24.000
702,23.710
703,23.254
704,22.873
705,23.419
706,23.928
707,24.657
708,24.826
709,24.823
710,24.020
711,23.456
712,23.814
713,24.184
714,25.165
715,24.520
716,24.086
717,23.336
718,22.893
719,23.501
720,23.645
721,22.744
722,22.256
723,23.786
724,24.856
725,25.151
726,23.825
727,23.458
728,24.241
729,24.927
730,24.421
731,23.688
732,25.217
733,25.253
734,24.913
735,25.033
736,25.848
737,26.259
738,26.132
739,26.544
740,28.183
741,28.903
742,28.048
743,27.099
744,26.406
745,25.953
746,24.944
747,24.656
748,25.011
749,25.776
750,26.520
751,26.328
752,26.052
753,25.166
754,24.979
755,26.868
756,29.072
757,30.399
758,30.706
759,31.936
760,31.918
761,31.837
762,30.866
763,29.891
764,29.067
765,29.670
766,29.925
767,31.558
768,32.890
769,32.751
770,33.794
771,35.018
772,36.908
773,36.975
774,36.811
775,36.623
776,36.926
777,38.550
778,40.015
779,41.582
780,41.851
781,42.503
782,44.316
783,41.499
784,41.415
785,42.907
786,44.404
787,44.952
788,45.072
789,45.192
790,45.233
791,44.804
792,43.649
793,41.037
794,39.278
795,40.541
796,40.441
797,42.286
798,43.989
799,45.606
800,44.757
801,44.396
802,45.758
803,47.192
804,45.019
805,41.298
806,40.040
807,39.522
808,39.817
809,40.073
810,38.809
811,38.374
812,38.058
813,37.891
814,38.854
815,38.843
816,36.318
817,35.298
818,35.045
819,35.695
820,37.260
821,36.235
822,35.976
823,36.032
824,36.734
825,38.527
826,39.117
827,38.762
828,37.312
829,36.141
830,34.484
831,32.709
832,29.792
833,26.781
834,24.074
835,22.251
836,20.820
837,21.000
838,21.000
839,20.123
840,18.762
841,18.725
842,16.175
843,16.652
844,16.485
845,16.043
846,17.287
847,19.330
848,17.955
849,17.198
850,18.343
851,18.131
852,16.156
853,16.317
854,17.703
855,17.561
856,18.518
857,18.405
858,17.681
859,16.210
860,16.175
861,17.295
862,17.958
863,17.094
864,16.613
865,18.771
866,21.009
867,20.601
868,20.711
869,21.471
870,21.266
871,21.467
872,21.667
873,23.296
874,23.887
875,23.416
876,23.267
877,24.809
878,27.576
879,28.512
880,29.891
881,33.344
882,37.647
883,40.124
884,41.388
885,44.912
886,48.897
887,51.708
888,52.521
889,52.220
890,54.376
891,55.976
892,56.314
893,54.905
894,53.553
895,53.900
896,54.793
897,55.192
898,55.121
899,56.277
900,56.967
901,57.017
902,58.037
903,59.418
904,60.134
905,59.891
906,60.110
907,59.741
908,59.935
909,60.883
910,62.458
911,62.606
912,62.997
913,63.856
914,64.557
915,63.955
916,63.492
917,63.083
918,61.675
919,59.912
920,58.501
921,57.612
922,55.518
923,53.643
924,52.758
925,52.215
926,51.277
927,50.572
928,48.942
929,46.247
930,43.494
931,41.705
932,38.509
933,36.842
934,35.850
935,33.925
936,33.667
937,34.150
938,32.797
939,29.718
940,29.481
941,31.588
942,32.078
943,31.151
944,34.082
945,33.968
946,31.512
947,29.536
948,28.354
949,28.333
950,27.682
951,28.093
952,29.667
953,29.554
954,29.384
955,28.534
956,26.887
957,25.007
958,24.667
959,24.975
960,26.310
961,27.025
962,28.329
963,30.032
964,30.779
965,29.806
966,29.705
967,30.877
968,32.675
969,35.009
970,35.590
971,37.181
972,39.017
973,40.173
974,41.446
975,43.604
976,45.679
977,48.337
978,52.515
979,56.915
980,60.786
981,63.570
982,65.180
983,66.641
984,68.121
985,70.568
986,74.601
987,75.727
988,75.586
989,75.602
990,77.283
991,80.244
992,81.539
993,81.832
994,81.759
995,83.140
996,85.403
997,87.133
998,87.425
999,86.264
1000,87.529
1001,90.102
1002,92.388
1003,91.473
1004,89.594
1005,90.983
1006,92.698
1007,95.245
1008,93.635
1009,92.745
1010,91.088
1011,90.333
1012,90.810
1013,93.058
1014,91.657
1015,90.851
1016,91.384
1017,91.217
1018,90.446
1019,89.189
1020,90.059
1021,90.695
1022,92.121
1023,92.341
1024,91.596
1025,89.663
1026,92.314
1027,94.277
1028,93.829
1029,91.465
1030,89.916
1031,89.975
1032,90.711
1033,94.238
1034,94.941
1035,94.447
1036,92.721
1037,92.011
1038,91.896
1039,90.005
1040,88.882
1041,89.047
1042,89.657
1043,88.959
1044,89.186
1045,87.164
1046,81.281
1047,78.574
1048,77.509
1049,76.150
1050,74.004
1051,73.028
1052,71.977
1053,69.489
1054,66.944
1055,64.385
1056,64.019
1057,62.255
1058,59.833
1059,56.767
1060,52.869
1061,47.873
1062,43.322
1063,40.062
1064,39.121
1065,39.080
1066,39.634
1067,39.628
1068,39.300
1069,38.868
1070,40.356
1071,41.510
1072,41.985
1073,43.368
1074,45.434
1075,46.964
1076,47.597
1077,48.901
1078,49.756
1079,50.353
1080,51.643
1081,54.509
1082,56.832
1083,58.822
1084,61.360
1085,63.166
1086,64.101
1087,65.483
1088,67.879
1089,68.336
1090,69.362
1091,70.357
1092,71.426
1093,73.695
1094,75.890
1095,78.551
1096,81.427
1097,83.893
1098,85.528
1099,87.332
1100,88.052
1101,89.226
1102,90.689
1103,92.743
1104,94.226
1105,95.688
1106,97.622
1107,100.256
1108,102.557
1109,103.333
1110,104.615
1111,105.626
1112,106.701
1113,108.031
1114,109.501
1115,111.702
1116,112.557
1117,112.414
1118,111.108
1119,107.463
1120,106.474
1121,107.303
1122,108.157
1123,108.762
1124,109.005
1125,108.679
1126,108.617
1127,107.762
1128,106.613
1129,106.432
1130,107.844
1131,107.835
1132,107.289
1133,106.948
1134,106.171
1135,105.209
1136,105.710
1137,104.536
1138,102.575
1139,100.969
1140,102.849
1141,103.636
1142,102.368
1143,98.796
1144,95.917
1145,97.404
1146,96.509
1147,92.683
1148,88.883
1149,86.213
1150,84.403
1151,82.543
1152,82.456
1153,79.644
1154,76.773
1155,73.880
1156,69.828
1157,64.954
1158,61.284
1159,58.742
1160,58.881
1161,59.487
1162,59.548
1163,59.199
1164,59.333
1165,59.333
1166,59.776
1167,60.227
1168,60.382
1169,61.685
1170,64.280
1171,65.901
1172,67.713
1173,70.703
1174,75.464
1175,79.905
1176,83.344
1177,86.517
1178,89.433
1179,92.859
1180,94.298
1181,95.377
1182,96.167
1183,98.524
1184,101.999
1185,104.412
1186,106.436
1187,110.870
1188,114.403
1189,116.427
1190,117.264
1191,117.667
1192,118.913
1193,120.933
1194,122.527
1195,124.441
1196,123.802
1197,122.760
1198,123.016
1199,124.371
1200,132.322
1201,145.913
1202,157.593
1203,166.509
1204,168.584
1205,167.916
1206,167.805
1207,169.483
1208,169.212
1209,169.655
1210,170.487
1211,172.168
1212,176.619
1213,178.634
1214,181.776
1215,185.892
1216,189.549
1217,194.121
1218,198.852
1219,201.477
1220,204.602
1221,207.741
1222,210.609
1223,213.428
1224,213.786
1225,215.571
1226,218.180
1227,220.526
1228,221.743
1229,221.607
1230,221.582
1231,219.871
1232,217.383
1233,216.197
1234,214.834
1235,214.726
1236,214.072
1237,212.299
1238,211.408
1239,211.842
1240,211.093
1241,208.947
1242,207.277
1243,204.982
1244,203.188
1245,202.725
1246,203.248
1247,203.765
1248,201.254
1249,195.406
1250,191.648
1251,191.443
1252,192.115
1253,192.734
1254,193.900
1255,198.122
1256,198.778
1257,198.375
1258,195.671
1259,189.740
1260,181.793
1261,171.373
1262,160.843
1263,151.250
1264,145.523
1265,144.167
1266,145.489
1267,139.423
1268,134.372
1269,129.207
1270,123.294
1271,116.844
1272,113.359
1273,112.068
1274,111.349
1275,110.354
1276,110.465
1277,110.223
1278,111.084
1279,112.153
1280,112.073
1281,113.480
1282,115.036
1283,117.656
1284,121.551
1285,121.150
1286,118.609
1287,118.078
1288,118.181
1289,113.680
1290,118.536
1291,137.837
1292,161.272
1293,184.246
1294,204.812
1295,214.060
1296,217.868
1297,223.111
1298,226.876
1299,229.092
1300,231.381
1301,234.611
1302,237.989
1303,240.389
1304,245.233
1305,249.638
1306,251.856
1307,253.010
1308,253.665
1309,253.681
1310,254.417
1311,254.356
1312,254.333
1313,254.130
1314,254.197
1315,254.333
1316,254.180
1317,253.735
1318,254.879
1319,255.000
1320,255.000
1321,255.000
1322,255.000
1323,254.517
1324,254.333
1325,254.333
1326,254.333
1327,254.333
1328,254.699
1329,254.499
1330,254.385
1331,254.895
1332,255.000
1333,255.000
1334,255.000
1335,255.000
1336,255.000
1337,255.000
1338,254.869
1339,254.978
1340,255.000
1341,254.640
1342,254.911
1343,254.981
1344,254.372
1345,254.381
1346,254.649
1347,255.000
1348,255.000
1349,254.595
1350,254.378
1351,254.807
1352,255.000
1353,255.000
1354,255.000
1355,255.000
1356,255.000
1357,255.000
1358,254.778
1359,254.354
1360,255.000
1361,255.000
1362,254.451
1363,254.000
1364,254.079
1365,254.843
1366,255.000
1367,255.000
1368,255.000
1369,254.688
1370,254.681
1371,255.000
1372,255.000
1373,255.000
1374,255.000
1375,255.000
1376,255.000
1377,254.993
1378,254.714
1379,254.667
1380,254.667
1381,254.667
1382,254.667
1383,254.667
1384,254.667
1385,254.875
1386,255.000
1387,255.000
1388,255.000
1389,255.000
1390,255.000
1391,255.000
1392,254.931
1393,255.000
1394,255.000
1395,255.000
1396,255.000
1397,255.000
1398,254.921
1399,254.702
1400,254.391
1401,254.373
1402,255.000
1403,254.978
1404,255.000
1405,255.000
1406,255.000
1407,255.000
1408,255.000
1409,254.969
1410,254.755
1411,254.639
1412,253.639
1413,254.003
1414,254.333
1415,254.333
1416,254.333
1417,254.739
1418,255.000
1419,254.862
1420,254.261
1421,254.826
1422,254.797
1423,254.000
1424,254.000
1425,254.404
1426,255.000
1427,254.915
1428,254.770
1429,254.984
1430,255.000
1431,255.000
1432,254.920
1433,254.628
1434,255.000
1435,255.000
1436,254.507
1437,254.000
1438,254.668
1439,255.000
1440,255.000
1441,255.000
1442,255.000
1443,255.000
1444,255.000
1445,255.000
1446,255.000
1447,254.450
1448,253.790
1449,253.413
1450,254.033
1451,254.000
1452,254.000
1453,254.205
1454,254.032
1455,254.000
1456,254.433
1457,255.000
1458,255.000
1459,255.000
1460,255.000
1461,254.845
1462,254.000
1463,254.000
1464,254.551
1465,254.742
1466,254.842
1467,255.000
1468,255.000
1469,255.000
1470,255.000
1471,255.000
1472,254.332
1473,254.000
1474,254.198
1475,254.986
1476,254.818
1477,254.689
1478,255.000
1479,254.994
1480,254.961
1481,254.835
1482,254.667
1483,254.667
1484,254.810
1485,254.435
1486,254.718
1487,254.699
1488,254.333
1489,254.333
1490,253.831
1491,254.333
1492,253.936
1493,252.169
1494,249.574
1495,248.568
1496,247.524
1497,244.933
1498,242.341
1499,238.958
1500,233.569
1501,229.741
1502,226.647
1503,225.715
1504,223.577
1505,222.368
1506,218.497
1507,210.151
1508,196.772
1509,182.193
1510,168.000
1511,150.590
1512,134.206
1513,122.820
1514,122.465
1515,120.295
1516,118.963
1517,120.854
1518,119.785
1519,118.375
1520,116.864
1521,115.803
1522,115.089
1523,116.550
1524,117.382
1525,114.022
1526,110.186
1527,108.767
1528,106.108
1529,105.236
1530,104.877
1531,106.113
1532,107.229
1533,108.926
1534,110.864
1535,112.298
1536,113.493
1537,116.041
1538,114.697
1539,113.782
1540,114.078
1541,116.634
1542,119.736
1543,122.126
1544,122.432
1545,122.814
1546,123.252
1547,123.240
1548,122.033
1549,125.381
1550,127.053
1551,130.420
1552,131.027
1553,134.195
1554,137.929
1555,141.284
1556,142.084
1557,138.867
1558,136.080
1559,132.826
1560,134.826
1561,139.558
1562,144.183
1563,147.096
1564,148.889
1565,147.437
1566,147.427
1567,146.838
1568,144.590
1569,142.356
1570,140.774
1571,138.057
1572,134.063
1573,133.576
1574,135.484
1575,134.729
1576,134.374
1577,135.386
1578,137.230
1579,136.953
1580,135.820
1581,132.929
1582,130.136
1583,129.090
1584,128.734
1585,127.906
1586,127.944
1587,127.465
1588,127.531
1589,128.534
1590,129.365
1591,128.798
1592,128.141
1593,127.743
1594,125.727
1595,122.729
1596,120.444
1597,119.175
1598,117.382
1599,117.645
1600,117.842
1601,115.501
1602,111.804
1603,110.613
1604,108.821
1605,107.209
1606,105.578
1607,105.369
1608,104.149
1609,101.921
1610,98.036
1611,95.590
1612,92.654
1613,91.521
1614,91.667
1615,90.449
1616,89.941
1617,90.414
1618,91.230
1619,92.184
1620,93.501
1621,92.127
1622,91.175
1623,91.085
1624,89.166
1625,87.896
1626,87.537
1627,87.270
1628,87.649
1629,89.126
1630,90.396
1631,90.364
1632,88.849
1633,89.125
1634,89.170
1635,89.176
1636,89.320
1637,90.364
1638,91.014
1639,91.117
1640,90.687
1641,90.667
1642,93.275
1643,94.903
1644,94.909
1645,95.314
1646,96.514
1647,95.691
1648,94.926
1649,95.643
1650,95.423
1651,96.474
1652,96.400
1653,97.902
1654,96.493
1655,95.900
1656,95.667
1657,95.525
1658,95.711
1659,97.075
1660,97.708
1661,98.736
1662,98.363
1663,99.390
1664,98.196
1665,96.994
1666,100.746
1667,100.336
1668,98.433
1669,97.682
1670,96.889
1671,95.870
1672,95.916
1673,95.339
1674,94.667
1675,94.667
1676,95.299
1677,98.907
1678,98.629
1679,96.305
1680,96.497
1681,95.485
1682,92.183
1683,89.353
1684,90.574
1685,90.546
1686,89.095
1687,87.827
1688,86.789
1689,86.117
1690,84.985
1691,84.149
1692,82.777
1693,82.498
1694,83.109
1695,84.638
1696,83.687
1697,80.555
1698,79.629
1699,79.059
1700,77.301
1701,75.356
1702,73.870
1703,73.626
1704,72.623
1705,72.589
1706,72.896
1707,71.459
1708,67.887
1709,66.281
1710,65.193
1711,63.934
1712,63.167
1713,62.964
1714,61.995
1715,60.584
1716,60.062
1717,58.504
1718,56.617
1719,55.942
1720,56.769
1721,57.230
1722,55.559
1723,54.537
1724,54.104
1725,54.738
1726,55.715
1727,53.078
1728,53.317
1729,53.079
1730,50.781
1731,48.679
1732,46.870
1733,46.683
1734,46.667
1735,46.511
1736,46.107
1737,46.994
1738,45.935
1739,43.939
1740,43.775
1741,44.336
1742,45.518
1743,45.899
1744,45.338
1745,44.959
1746,44.604
1747,45.976
1748,45.793
1749,46.202
1750,46.333
1751,46.710
1752,48.338
1753,49.664
1754,50.663
1755,50.823
1756,51.005
1757,50.589
1758,48.016
1759,46.033
1760,44.577
1761,44.865
1762,45.396
1763,46.769
1764,47.250
1765,48.408
1766,47.485
1767,46.167
1768,47.373
1769,48.160
1770,49.276
1771,49.076
1772,48.558
1773,48.118
1774,48.854
1775,48.547
1776,47.488
1777,45.472
1778,43.700
1779,43.008
1780,42.825
1781,41.463
1782,38.763
1783,36.607
1784,35.270
1785,33.537
1786,31.349
1787,28.363
1788,25.654
1789,25.000
1790,25.000
1791,24.386
1792,24.000
1793,24.083
1794,24.929
1795,25.000
1796,24.703
1797,23.443
1798,22.184
1799,22.409
1800,22.785
1801,24.197
1802,25.263
1803,25.674
1804,25.765
1805,25.613
1806,24.306
1807,23.767
1808,23.457
1809,24.663
1810,26.152
1811,26.531
1812,27.116
1813,29.970
1814,32.044
1815,32.434
1816,34.873
1817,38.705
1818,42.595
1819,47.111
1820,52.493
1821,55.806
1822,58.642
1823,61.326
1824,62.704
1825,64.513
1826,68.346
1827,70.086
1828,69.892
1829,70.446
1830,70.714
1831,71.416
1832,73.263
1833,74.512
1834,75.666
1835,76.410
1836,77.984
1837,79.393
1838,80.237
1839,82.619
1840,86.338
1841,90.063
1842,90.815
1843,90.831
1844,90.631
1845,91.000
1846,91.898
1847,92.333
1848,92.399
1849,92.440
1850,91.518
1851,91.051
1852,92.262
1853,92.787
1854,93.606
1855,93.742
1856,93.581
1857,93.827
1858,92.632
1859,91.103
1860,90.621
1861,91.678
1862,91.499
1863,92.228
1864,92.000
1865,91.797
1866,91.637
1867,91.511
1868,91.333
1869,91.071
1870,90.328
1871,89.662
1872,90.261
1873,90.633
1874,89.733
1875,89.256
1876,89.642
1877,90.000
1878,89.880
1879,89.666
1880,89.904
1881,89.374
1882,88.521
1883,87.298
1884,87.716
1885,87.215
1886,86.494
1887,86.498
1888,85.536
1889,85.555
1890,85.741
1891,84.122
1892,81.610
1893,80.603
1894,80.901
1895,79.746
1896,77.221
1897,74.338
1898,72.629
1899,71.005
1900,66.990
1901,64.131
1902,62.072
1903,59.765
1904,59.257
1905,57.823
1906,55.877
1907,53.704
1908,49.707
1909,45.144
1910,39.625
1911,35.065
1912,31.786
1913,29.367
1914,29.786
1915,28.974
1916,26.038
1917,24.183
1918,22.460
1919,19.711
1920,17.925
1921,17.351
1922,17.483
1923,17.137
1924,17.660
1925,17.219
1926,16.667
1927,16.667
1928,16.667
1929,16.667
1930,16.667
1931,16.317
1932,15.738
1933,16.473
1934,16.953
1935,16.671
1936,16.827
1937,17.155
1938,17.944
1939,17.068
1940,16.154
1941,15.986
1942,15.922
1943,16.114
1944,18.403
1945,19.127
1946,18.964
1947,17.675
1948,18.360
1949,19.017
1950,19.407
1951,20.403
1952,21.327
1953,22.782
1954,23.545
1955,23.461
1956,26.958
1957,28.548
1958,29.837
1959,32.181
1960,35.082
1961,36.644
1962,38.188
1963,38.579
1964,39.965
1965,42.634
1966,43.599
1967,43.396
1968,43.873
1969,43.683
1970,45.651
1971,48.181
1972,51.002
1973,52.243
1974,52.231
1975,53.225
1976,54.145
1977,55.588
1978,56.381
1979,54.779
1980,53.699
1981,53.441
1982,53.496
1983,54.050
1984,57.356
1985,57.696
1986,54.330
1987,52.729
1988,53.120
1989,55.510
1990,58.522
1991,58.375
1992,57.003
1993,57.575
1994,58.192
1995,58.451
1996,57.626
1997,56.310
1998,55.647
1999,55.963
2000,54.471
2001,53.395
2002,53.896
2003,53.732
2004,52.718
2005,50.929
2006,49.961
2007,48.839
2008,47.088
2009,47.056
2010,46.701
2011,45.335
2012,45.127
2013,44.125
2014,42.369
2015,40.227
2016,37.306
2017,34.555
2018,33.477
2019,33.361
2020,32.162
2021,32.855
2022,33.059
2023,31.142
2024,29.918
2025,27.160
2026,22.626
2027,20.301
2028,20.161
2029,20.285
2030,18.908
2031,17.269
2032,16.540
2033,14.832
2034,12.730
2035,13.206
2036,14.154
2037,15.569
2038,14.761
2039,13.888
2040,13.745
2041,13.617
2042,14.000
2043,14.000
2044,13.912
2045,13.147
2046,14.252
2047,15.661
2048,16.640
2049,15.694
2050,15.337
2051,14.477
2052,14.437
2053,15.450
2054,16.123
2055,17.123
2056,17.343
2057,16.667
2058,16.912
2059,18.300
2060,20.200
2061,21.301
2062,21.856
2063,22.665
2064,23.933
2065,24.929
2066,25.525
2067,25.326
2068,24.097
2069,24.873
2070,25.743
2071,27.394
2072,27.695
2073,27.938
2074,27.381
2075,29.914
2076,33.717
2077,35.105
2078,35.318
2079,37.154
2080,39.656
2081,40.799
2082,40.102
2083,41.492
2084,41.808
2085,41.299
2086,41.741
2087,44.029
2088,48.105
2089,50.958
2090,52.746
2091,53.848
2092,54.127
2093,54.365
2094,55.756
2095,58.493
2096,59.308
2097,58.742
2098,59.024
2099,58.084
2100,60.433
2101,60.777
2102,58.765
2103,57.007
2104,57.262
2105,57.912
2106,57.531
2107,58.169
2108,59.802
2109,60.498
2110,60.130
2111,60.149
2112,61.170
2113,60.321
2114,61.253
2115,61.990
2116,62.082
2117,62.202
2118,61.310
2119,61.000
2120,61.138
2121,61.648
2122,62.120
2123,62.956
2124,61.499
2125,61.364
2126,62.129
2127,62.333
2128,61.467
2129,59.667
2130,59.667
2131,60.286
2132,60.643
2133,60.052
2134,60.793
2135,60.650
2136,59.326
2137,59.390
2138,58.370
2139,57.432
2140,56.976
2141,57.219
2142,57.460
2143,56.645
2144,57.499
2145,57.038
2146,55.818
2147,54.083
2148,52.097
2149,51.135
2150,51.085
2151,49.598
2152,47.880
2153,47.222
2154,46.982
2155,48.846
2156,49.922
2157,50.058
2158,49.933
2159,49.149
2160,49.061
2161,48.329
2162,48.247
2163,48.909
2164,44.250
2165,41.416
2166,39.613
2167,37.861
2168,36.703
2169,37.571
2170,38.557
2171,37.572
2172,35.759
2173,34.090
2174,32.711
2175,33.505
2176,33.812
2177,32.667
2178,31.732
2179,30.789
2180,30.876
2181,30.501
2182,30.302
2183,31.074
2184,30.674
2185,30.600
2186,30.025
2187,28.967
2188,28.615
2189,27.829
2190,26.720
2191,26.250
2192,26.291
2193,25.593
2194,24.188
2195,22.401
2196,20.916
2197,20.103
2198,19.661
2199,19.000
2200,18.773
2201,18.687
2202,19.000
2203,17.991
2204,17.044
2205,16.389
2206,15.369
2207,15.822
2208,16.811
2209,15.618
2210,14.032
2211,14.797
2212,14.813
2213,14.402
2214,13.719
2215,13.381
2216,12.338
2217,12.302
2218,11.487
2219,12.132
2220,13.002
2221,12.913
2222,12.264
2223,11.394
2224,11.261
2225,11.999
2226,13.125
2227,14.332
2228,14.810
2229,14.378
2230,14.007
2231,13.254
2232,11.894
2233,11.275
2234,12.027
2235,12.446
2236,11.333
2237,12.013
2238,12.517
2239,13.000
2240,13.000
2241,13.275
2242,13.392
2243,14.162
2244,15.333
2245,15.333
2246,14.010
2247,12.784
2248,13.800
2249,14.466
2250,15.074
2251,15.566
2252,15.267
2253,14.637
2254,14.575
2255,14.926
2256,17.008
2257,19.601
2258,21.017
2259,21.337
2260,21.510
2261,21.340
2262,22.007
2263,23.110
2264,22.723
2265,22.040
2266,22.825
2267,25.313
2268,25.778
2269,24.667
2270,23.696
2271,24.312
2272,24.869
2273,24.804
2274,24.026
2275,24.156
2276,23.688
2277,23.715
2278,24.580
2279,26.838
2280,26.230
2281,26.055
2282,26.667
2283,26.721
2284,27.211
2285,25.553
2286,26.130
2287,27.539
2288,28.439
2289,29.333
2290,28.657
2291,25.559
2292,27.264
2293,28.840
2294,29.979
2295,30.195
2296,29.987
2297,30.601
2298,30.891
2299,30.667
2300,30.267
2301,27.686
2302,26.425
2303,25.271
2304,24.422
2305,24.155
2306,24.275
2307,24.847
2308,25.492
2309,25.150
2310,25.447
2311,25.087
2312,24.633
2313,23.868
2314,22.759
2315,22.335
2316,22.846
2317,23.857
2318,24.428
2319,24.086
2320,23.441
2321,22.797
2322,22.606
2323,21.729
2324,20.237
2325,19.347
2326,19.249
2327,19.175
2328,19.160
2329,19.695
2330,20.558
2331,18.808
2332,16.790
2333,17.205
2334,16.200
2335,15.315
2336,14.889
2337,14.490
2338,14.965
2339,14.606
2340,14.249
2341,13.840
2342,12.631
2343,11.309
2344,11.693
2345,11.731
2346,11.000
2347,13.089
2348,13.874
2349,12.728
2350,11.440
2351,11.000
2352,11.622
2353,10.218
2354,7.602
2355,8.315
2356,8.891
2357,9.373
2358,9.404
2359,9.532
2360,10.073
2361,10.005
2362,8.941
2363,8.088
2364,8.032
2365,7.723
2366,7.847
2367,8.228
2368,8.667
2369,8.165
2370,7.217
2371,6.727
2372,5.736
2373,5.804
2374,5.566
2375,5.883
2376,6.983
2377,6.288
2378,5.899
2379,6.723
2380,8.000
2381,7.389
2382,6.475
2383,6.500
2384,7.858
2385,7.527
2386,7.139
2387,7.407
2388,7.848
2389,7.083
2390,7.000
2391,7.000
2392,6.504
2393,6.709
2394,6.082
2395,6.221
2396,6.075
2397,6.435
2398,6.667
2399,6.573
2400,6.354
2401,7.483
2402,7.926
2403,6.659
2404,5.612
2405,5.311
2406,6.888
2407,7.391
2408,7.494
2409,7.498
2410,8.000
2411,7.259
2412,6.751
2413,6.119
2414,5.965
2415,5.200
2416,5.564
2417,5.915
2418,6.350
2419,6.141
2420,5.579
2421,5.000
2422,5.147
2423,5.917
2424,5.651
2425,5.496
2426,5.947
2427,6.732
2428,5.892
2429,5.191
2430,4.667
2431,4.678
2432,5.424
2433,6.053
2434,5.909
2435,4.310
2436,4.139
2437,4.555
2438,5.276
2439,5.920
2440,7.036
2441,8.066
2442,8.382
2443,8.502
2444,7.997
2445,6.517
2446,7.438
2447,8.215
2448,9.000
2449,8.635
2450,7.995
2451,7.232
2452,7.000
2453,7.000
2454,7.000
2455,7.000
2456,7.153
2457,7.918
2458,7.826
2459,6.444
2460,6.904
2461,7.399
2462,8.019
2463,7.471
2464,7.366
2465,7.983
2466,7.800
2467,7.647
2468,8.406
2469,8.572
2470,7.807
2471,7.840
2472,8.837
2473,9.589
2474,10.929
2475,11.122
2476,11.766
2477,12.411
2478,13.000
2479,10.775
2480,10.676
2481,11.268
2482,12.023
2483,12.578
2484,12.034
2485,12.187
2486,12.830
2487,12.017
2488,11.812
2489,12.145
2490,13.097
2491,14.837
2492,14.292
2493,14.000
2494,13.709
2495,12.057
2496,11.195
2497,10.449
2498,11.217
2499,12.590
2500,12.953
2501,13.000
2502,11.446
2503,11.000
2504,11.000
2505,11.796
2506,12.039
2507,12.861
2508,14.277
2509,15.649
2510,14.281
2511,13.213
2512,13.978
2513,13.675
2514,12.314
2515,10.306
2516,9.333
2517,9.333
2518,8.767
2519,8.175
2520,7.484
2521,7.163
2522,8.273
2523,9.774
2524,10.729
2525,10.414
2526,8.750
2527,7.364
2528,7.273
2529,8.882
2530,10.952
2531,10.279
2532,8.870
2533,7.461
2534,6.199
2535,6.000
2536,6.767
2537,8.081
2538,8.725
2539,8.375
2540,7.217
2541,6.557
2542,6.359
2543,6.300
2544,5.674
2545,6.450
2546,7.859
2547,8.000
2548,7.492
2549,7.000
2550,6.983
2551,6.198
2552,6.002
2553,5.868
2554,5.796
2555,6.622
2556,7.292
2557,7.667
2558,7.462
2559,7.095
2560,6.429
2561,6.536
2562,6.689
2563,7.964
2564,7.876
2565,7.874
2566,7.439
2567,8.000
2568,8.000
2569,7.601
2570,7.814
2571,9.286
2572,9.229
2573,9.228
2574,8.553
2575,7.971
2576,8.532
2577,9.878
2578,10.111
2579,9.970
2580,8.561
2581,8.008
2582,7.540
2583,9.011
2584,9.347
2585,10.179
2586,11.839
2587,12.899
2588,11.986
2589,11.426
2590,12.048
2591,12.288
2592,11.568
2593,9.824
2594,12.462
2595,13.306
2596,14.119
2597,13.355
2598,13.202
2599,13.020
2600,13.957
2601,14.962
2602,14.198
2603,13.783
2604,13.062
2605,12.725
2606,12.139
2607,12.073
2608,12.000
2609,12.329
2610,12.208
2611,12.773
2612,13.418
2613,14.000
2614,14.000
2615,14.351
2616,14.489
2617,14.290
2618,13.596
2619,14.915
2620,14.178
2621,13.146
2622,13.097
2623,13.495
2624,13.626
2625,14.000
2626,14.000
2627,14.000
2628,13.815
2629,13.469
2630,13.333
2631,13.333
2632,13.105
2633,12.672
2634,13.273
2635,13.807
2636,13.081
2637,13.000
2638,12.884
2639,12.454
2640,12.333
2641,12.333
2642,12.430
2643,11.960
2644,9.644
2645,10.450
2646,10.182
2647,10.647
2648,10.692
2649,9.922
2650,10.176
2651,11.293
2652,11.000
2653,11.000
2654,12.264
2655,13.087
2656,12.978
2657,12.677
2658,11.976
2659,12.505
2660,12.945
2661,12.081
2662,12.686
2663,12.550
2664,12.186
2665,12.980
2666,14.161
2667,13.858
2668,14.333
2669,14.337
2670,14.761
2671,15.317
2672,15.111
2673,15.333
2674,15.333
2675,15.953
2676,16.112
2677,15.426
2678,14.082
2679,13.913
2680,14.243
2681,14.912
2682,15.011
2683,14.255
2684,14.000
2685,15.288
2686,17.144
2687,18.100
2688,16.559
2689,16.334
2690,15.764
2691,16.242
2692,16.302
2693,16.667
2694,17.012
2695,16.914
2696,18.137
2697,19.251
2698,19.486
2699,21.449
2700,21.255
2701,20.660
2702,20.175
2703,20.361
2704,20.240
2705,21.257
2706,22.333
2707,21.073
2708,21.279
2709,21.826
2710,22.385
2711,22.510
2712,21.745
2713,20.820
2714,21.274
2715,22.899
2716,24.636
2717,26.406
2718,27.136
2719,26.602
2720,28.604
2721,27.195
2722,26.310
2723,25.696
2724,25.027
2725,24.655
2726,24.598
2727,24.484
2728,24.657
2729,25.053
2730,24.418
2731,24.174
2732,24.593
2733,24.413
2734,24.285
2735,24.460
2736,25.034
2737,26.725
2738,28.397
2739,27.945
2740,26.420
2741,26.125
2742,26.005
2743,26.609
2744,25.492
2745,23.959
2746,25.369
2747,26.062
2748,26.018
2749,25.394
2750,25.297
2751,24.912
2752,24.547
2753,25.259
2754,26.104
2755,26.111
2756,26.217
2757,25.262
2758,25.048
2759,24.842
2760,24.197
2761,24.252
2762,24.976
2763,23.372
2764,23.306
2765,23.418
2766,23.155
2767,22.353
2768,22.454
2769,22.404
2770,21.591
2771,19.715
2772,20.492
2773,20.429
2774,19.625
2775,19.629
2776,19.765
2777,19.718
2778,19.755
2779,19.907
2780,19.639
2781,19.224
2782,18.233
2783,17.703
2784,17.248
2785,17.071
2786,16.465
2787,16.481
2788,16.083
2789,15.604
2790,16.374
2791,17.434
2792,16.817
2793,15.899
2794,13.702
2795,12.415
2796,12.616
2797,12.392
2798,12.327
2799,12.011
2800,11.825
2801,11.572
2802,11.554
2803,11.317
2804,10.230
2805,8.607
2806,8.058
2807,7.761
2808,8.293
2809,8.589
2810,9.024
2811,9.878
2812,10.394
2813,10.537
2814,7.672
2815,7.766
2816,8.048
2817,7.461
2818,7.183
2819,7.210
2820,6.489
2821,5.989
2822,5.746
2823,5.667
2824,6.266
2825,7.361
2826,7.601
2827,7.653
2828,7.037
2829,6.832
2830,6.667
2831,7.747
2832,8.690
2833,8.149
2834,7.395
2835,7.000
2836,6.253
2837,5.708
2838,6.073
2839,6.688
2840,6.124
2841,6.571
2842,6.961
2843,6.344
2844,5.864
2845,6.585
2846,7.000
2847,7.000
2848,6.521
2849,6.576
2850,6.559
2851,7.000
2852,7.000
2853,7.000
2854,7.000
2855,7.559
2856,8.285
2857,7.256
2858,7.021
2859,7.000
2860,6.925
2861,6.910
2862,7.200
2863,6.718
2864,5.868
2865,5.040
2866,6.496
2867,7.763
2868,6.818
2869,6.633
2870,7.641
2871,6.992
2872,7.000
2873,6.958
2874,6.469
2875,7.491
2876,8.375
2877,7.792
2878,7.147
2879,7.000
2880,7.284
2881,8.231
2882,6.593
2883,7.075
2884,7.974
2885,7.854
2886,7.974
2887,6.340
2888,6.658
2889,7.277
2890,8.042
2891,8.620
2892,7.934
2893,6.974
2894,7.286
2895,8.896
2896,8.546
2897,8.751
2898,9.216
2899,8.613
2900,7.978
2901,7.631
2902,8.135
2903,8.978
2904,9.000
2905,7.727
2906,6.972
2907,7.566
2908,9.031
2909,9.832
2910,9.347
2911,8.988
2912,8.337
2913,7.741
2914,7.036
2915,7.674
2916,8.617
2917,7.985
2918,7.757
2919,7.061
2920,7.906
2921,8.000
2922,8.000
2923,8.000
2924,8.021
2925,8.807
2926,9.000
2927,9.000
2928,8.837
2929,8.663
2930,8.234
2931,8.000
2932,7.945
2933,8.300
2934,8.945
2935,9.000
2936,9.000
2937,9.000
2938,8.477
2939,7.545
2940,7.812
2941,8.456
2942,9.101
2943,9.319
2944,9.000
2945,9.000
2946,9.000
2947,8.046
2948,6.637
2949,6.736
2950,7.000
2951,6.310
2952,6.298
2953,6.190
2954,6.834
2955,6.610
2956,7.573
2957,7.935
2958,7.820
2959,6.848
2960,6.857
2961,5.962
2962,4.231
2963,5.733
2964,6.734
2965,6.604
2966,6.000
2967,5.803
2968,6.392
2969,6.043
2970,5.261
2971,5.399
2972,5.000
2973,4.959
2974,4.276
2975,3.740
2976,3.071
2977,3.569
2978,3.667
2979,3.740
2980,4.297
2981,4.272
2982,4.928
2983,5.601
2984,6.013
2985,6.000
2986,6.209
2987,7.197
2988,7.249
2989,7.064
2990,6.478
2991,6.041
2992,4.497
2993,3.931
2994,4.262
2995,4.259
2996,5.015
2997,5.940
2998,5.879
2999,5.716
3000,6.828
3001,7.602
3002,8.429
3003,8.771
3004,7.734
3005,7.005
3006,7.348
3007,7.482
3008,7.459
3009,6.985
3010,6.731
3011,6.340
3012,6.230
3013,7.436
3014,7.696
3015,7.450
3016,6.874
3017,7.361
3018,7.068
3019,7.000
3020,6.831
3021,6.012
3022,6.010
3023,7.728
3024,8.171
3025,7.388
3026,6.677
3027,7.380
3028,7.429
3029,6.882
3030,6.436
3031,7.262
3032,6.701
3033,7.127
3034,8.664
3035,8.404
3036,8.333
3037,8.333
3038,8.254
3039,7.806
3040,7.667
3041,7.838
3042,7.450
3043,7.631
3044,8.829
3045,9.930
3046,10.244
3047,9.667
3048,8.416
3049,7.322
3050,7.783
3051,7.829
3052,8.593
3053,8.719
3054,8.667
3055,8.667
3056,8.102
3057,7.721
3058,7.954
3059,8.000
3060,8.044
3061,7.622
3062,7.333
3063,7.333
3064,7.409
3065,8.575
3066,8.641
3067,6.476
3068,6.802
3069,8.211
3070,7.921
3071,7.574
3072,8.218
3073,8.863
3074,9.377
3075,8.725
3076,8.667
3077,8.329
3078,7.725
3079,6.987
3080,6.643
3081,6.018
3082,6.290
3083,6.333
3084,6.182
3085,6.639
3086,8.082
3087,8.333
3088,7.814
3089,8.027
3090,8.514
3091,7.913
3092,7.484
3093,7.496
3094,7.249
3095,6.389
3096,6.946
3097,7.002
3098,6.475
3099,6.868
3100,7.633
3101,7.543
3102,7.000
3103,7.000
3104,7.508
3105,8.234
3106,7.492
3107,7.974
3108,7.228
3109,6.484
3110,6.501
3111,7.274
3112,6.792
3113,7.309
3114,7.953
3115,8.536
3116,7.970
3117,7.971
3118,8.271
3119,8.023
3120,7.346
3121,7.655
3122,8.605
3123,8.497
3124,8.333
3125,8.061
3126,7.542
3127,7.189
3128,6.978
3129,6.811
3130,7.688
3131,8.031
3132,7.257
3133,5.552
3134,5.967
3135,6.732
3136,7.333
3137,7.333
3138,8.318
3139,8.942
3140,9.108
3141,9.210
3142,9.000
3143,8.356
3144,7.712
3145,7.064
3146,7.000
3147,7.000
3148,6.494
3149,5.489
3150,6.223
3151,6.460
3152,6.954
3153,7.537
3154,7.890
3155,7.551
3156,7.667
3157,7.815
3158,8.658
3159,7.915
3160,9.364
3161,9.173
3162,8.510
3163,8.822
3164,9.564
3165,8.784
3166,7.928
3167,10.159
3168,9.553
3169,9.223
3170,8.622
3171,7.977
3172,8.103
3173,8.655
3174,8.173
3175,8.895
3176,8.630
3177,8.667
3178,8.747
3179,8.821
3180,8.574
3181,8.667
3182,7.986
3183,6.667
3184,6.630
3185,6.704
3186,8.155
3187,10.000
3188,10.000
3189,10.604
3190,10.114
3191,6.761
3192,6.543
3193,7.802
3194,8.252
3195,8.350
3196,8.198
3197,7.722
3198,6.808
3199,6.917
3200,7.627
3201,6.818
3202,7.546
3203,7.667
3204,7.667
3205,8.269
3206,9.743
3207,9.542
3208,8.777
3209,8.010
3210,8.000
3211,7.256
3212,7.364
3213,8.000
3214,8.403
3215,8.440
3216,7.846
3217,6.930
3218,6.983
3219,7.863
3220,8.292
3221,8.236
3222,8.929
3223,9.000
3224,8.542
3225,7.890
3226,7.010
3227,7.000
3228,6.871
3229,6.615
3230,8.027
3231,7.521
3232,8.005
3233,7.925
3234,7.782
3235,7.118
3236,7.000
3237,7.626
3238,8.871
3239,7.970
3240,7.451
3241,8.214
3242,8.653
3243,8.012
3244,8.000
3245,7.816
3246,7.981
3247,8.000
3248,8.000
3249,8.553
3250,8.753
3251,8.418
3252,7.773
3253,7.928
3254,8.067
3255,8.860
3256,9.282
3257,9.578
3258,8.780
3259,7.819
3260,7.939
3261,7.055
3262,6.149
3263,6.232
3264,7.696
3265,8.025
3266,8.212
3267,7.728
3268,6.916
3269,6.869
3270,7.809
3271,9.278
3272,10.402
3273,10.070
3274,10.176
3275,8.807
3276,7.381
3277,7.667
3278,7.403
3279,7.667
3280,7.667
3281,8.388
3282,7.917
3283,7.090
3284,7.008
3285,7.667
3286,7.667
3287,6.655
3288,6.295
3289,5.550
3290,5.745
3291,6.333
3292,6.333
3293,6.262
3294,5.382
3295,5.940
3296,6.973
3297,7.616
3298,8.355
3299,8.333
3300,8.333
3301,7.991
3302,7.615
3303,7.853
3304,8.192
3305,7.687
3306,8.248
3307,7.736
3308,6.972
3309,7.007
3310,6.805
3311,6.347
3312,7.650
3313,8.333
3314,8.092
3315,7.815
3316,6.567
3317,5.424
3318,6.389
3319,7.333
3320,7.333
3321,7.061
3322,7.333
3323,7.446
3324,8.217
3325,8.895
3326,8.160
3327,7.860
3328,6.669
3329,7.264
3330,6.448
3331,5.534
3332,5.382
3333,6.085
3334,6.020
3335,6.289
3336,6.265
3337,6.341
3338,6.579
3339,5.301
3340,5.885
3341,6.903
3342,6.940
3343,6.206
3344,6.037
3345,6.665
3346,5.795
3347,6.700
3348,7.119
3349,7.667
3350,7.667
3351,7.089
3352,7.353
3353,8.535
3354,7.714
3355,7.667
3356,7.667
3357,6.935
3358,5.736
3359,6.362
3360,6.858
3361,7.412
3362,6.871
3363,6.234
3364,6.146
3365,6.150
3366,6.698
3367,6.665
3368,6.667
3369,6.769
3370,7.718
3371,8.464
3372,8.667
3373,8.265
3374,7.413
3375,7.333
3376,7.333
3377,7.538
3378,7.903
3379,7.413
3380,7.667
3381,7.633
3382,6.897
3383,6.661
3384,6.404
3385,6.333
3386,5.990
3387,5.236
3388,4.461
3389,6.067
3390,5.877
3391,5.667
3392,5.667
3393,5.667
3394,5.856
3395,6.667
3396,6.667
3397,5.827
3398,5.147
3399,4.990
3400,6.333
3401,6.333
3402,5.387
3403,5.705
3404,7.523
3405,7.730
3406,7.082
3407,6.667
3408,7.196
3409,7.667
3410,6.970
3411,6.865
3412,6.363
3413,4.695
3414,4.936
3415,6.253
3416,6.333
3417,6.284
3418,5.519
3419,5.333
3420,5.939
3421,6.558
3422,5.794
3423,5.029
3424,4.967
3425,5.667
3426,5.702
3427,6.570
3428,6.978
3429,6.917
3430,6.845
3431,6.396
3432,6.333
3433,6.333
3434,6.383
3435,7.148
3436,8.106
3437,8.585
3438,8.558
3439,6.913
3440,6.305
3441,6.950
3442,7.725
3443,8.591
3444,8.474
3445,8.515
3446,8.667
3447,8.097
3448,7.400
3449,6.883
3450,7.647
3451,9.266
3452,8.003
3453,6.563
3454,6.344
3455,7.000
3456,7.323
3457,8.644
3458,8.597
3459,7.832
3460,7.068
3461,7.198
3462,6.630
3463,6.548
3464,7.364
3465,7.958
3466,8.000
3467,8.328
3468,7.851
3469,7.046
3470,6.607
3471,6.331
3472,6.358
3473,7.283
3474,7.351
3475,7.616
3476,7.740
3477,7.095
3478,7.697
3479,8.000
3480,8.000
3481,8.000
3482,7.969
3483,7.762
3484,8.119
3485,9.000
3486,9.000
3487,8.770
3488,8.649
3489,7.282
3490,7.000
3491,7.593
3492,8.000
3493,8.144
3494,7.254
3495,6.494
3496,7.006
3497,8.227
3498,8.995
3499,8.243
3500,7.620
3501,7.552
3502,8.051
3503,8.815
3504,8.872
3505,8.655
3506,7.580
3507,8.749
3508,9.000
3509,8.068
3510,6.856
3511,6.945
3512,6.302
3513,6.369
3514,8.719
3515,8.013
3516,7.233
3517,7.000
3518,7.286
3519,8.000
3520,8.000
3521,8.000
3522,8.000
3523,8.000
3524,8.000
3525,8.537
3526,7.822
3527,7.000
3528,7.000
3529,7.126
3530,6.971
3531,6.226
3532,6.000
3533,6.757
3534,7.187
3535,7.000
3536,6.952
3537,6.184
3538,6.000
3539,6.000
3540,6.000
3541,6.133
3542,6.797
3543,6.333
3544,5.760
3545,5.018
3546,6.135
3547,6.019
3548,6.664
3549,7.000
3550,7.000
3551,6.964
3552,7.378
3553,7.470
3554,7.107
3555,6.667
3556,6.950
3557,7.556
3558,6.792
3559,6.667
3560,6.534
3561,6.650
3562,7.935
3563,7.669
3564,7.013
3565,7.228
3566,7.730
3567,6.264
3568,6.000
3569,6.146
3570,6.956
3571,6.094
3572,5.364
3573,5.268
3574,6.485
3575,6.870
3576,5.395
3577,5.616
3578,6.000
3579,5.357
3580,5.498
3581,5.500
3582,6.036
3583,6.660
3584,6.565
3585,6.411
3586,6.821
3587,7.355
3588,5.680
3589,4.803
3590,4.720
3591,4.710
3592,5.336
3593,4.906
3594,4.851
3595,4.883
3596,5.952
3597,6.529
3598,6.988
3599,7.650
3600,6.188
3601,6.822
3602,6.534
3603,6.111
3604,6.755
3605,6.600
3606,5.956
3607,5.550
3608,5.963
3609,5.144
3610,5.864
3611,6.159
3612,6.000
3613,5.295
3614,4.461
3615,4.453
3616,4.835
3617,6.127
3618,7.705
3619,7.779
3620,7.000
3621,7.090
3622,8.700
3623,9.582
3624,9.899
3625,8.921
3626,8.942
3627,7.943
3628,7.686
3629,6.382
3630,6.968
3631,7.000
3632,7.929
3633,9.229
3634,10.054
3635,9.561
3636,8.802
3637,7.733
3638,7.340
3639,6.287
3640,6.624
3641,6.458
3642,5.806
3643,7.323
3644,8.308
3645,7.720
3646,6.163
3647,6.023
3648,7.514
3649,7.960
3650,8.527
3651,9.615
3652,8.976
3653,8.938
3654,8.988
3655,8.980
3656,9.220
3657,10.446
3658,10.289
3659,9.595
3660,8.306
3661,7.850
3662,7.468
3663,6.880
3664,7.914
3665,8.700
3666,9.000
3667,9.000
3668,8.997
3669,8.844
3670,8.861
3671,9.000
3672,9.031
3673,9.859
3674,9.342
3675,8.831
3676,8.888
3677,8.123
3678,8.802
3679,8.945
3680,9.000
3681,9.357
3682,10.690
3683,10.641
3684,10.455
3685,9.046
3686,8.542
3687,8.524
3688,9.000
3689,9.000
3690,9.000
3691,8.899
3692,9.000
3693,9.102
3694,9.093
3695,9.000
3696,9.407
3697,9.829
3698,8.748
3699,8.706
3700,9.465
3701,10.000
3702,10.000
3703,10.000
3704,9.795
3705,9.151
3706,9.027
3707,8.975
3708,9.127
3709,9.348
3710,10.000
3711,10.000
3712,10.000
3713,9.593
3714,9.111
3715,9.936
3716,8.598
3717,8.000
3718,8.055
3719,8.991
3720,9.000
3721,8.560
3722,8.862
3723,9.054
3724,9.853
3725,9.569
3726,8.785
3727,8.890
3728,8.713
3729,9.642
3730,10.391
3731,10.326
3732,10.016
3733,10.000
3734,9.785
3735,9.953
3736,9.833
3737,9.328
3738,9.549
3739,9.153
3740,10.000
3741,9.991
3742,10.178
3743,9.320
3744,8.142
3745,9.430
3746,10.547
3747,11.462
3748,12.028
3749,12.076
3750,11.403
3751,10.269
3752,10.000
3753,10.000
3754,9.571
3755,9.004
3756,9.510
3757,9.035
3758,9.000
3759,9.584
3760,10.296
3761,10.834
3762,9.537
3763,8.439
3764,8.407
3765,9.000
3766,9.163
3767,9.943
3768,9.745
3769,9.694
3770,9.001
3771,9.467
3772,9.540
3773,10.000
3774,9.980
3775,10.760
3776,8.970
3777,7.747
3778,7.205
3779,7.402
3780,7.710
3781,8.000
3782,7.525
3783,6.960
3784,7.227
3785,7.857
3786,8.389
3787,8.130
3788,7.491
3789,6.808
3790,6.517
3791,7.091
3792,7.441
3793,7.808
3794,8.406
3795,9.301
3796,9.276
3797,7.731
3798,7.712
3799,6.734
3800,6.937
3801,7.000
3802,7.000
3803,6.771
3804,6.655
3805,6.493
3806,6.333
3807,6.624
3808,7.114
3809,7.175
3810,7.333
3811,7.333
3812,6.973
3813,4.455
3814,4.702
3815,4.363
3816,3.734
3817,4.650
3818,5.169
3819,5.638
3820,5.776
3821,4.393
3822,4.000
3823,4.946
3824,6.291
3825,7.045
3826,7.137
3827,6.217
3828,6.312
3829,6.552
3830,5.925
3831,5.980
3832,6.408
3833,7.225
3834,6.134
3835,5.367
3836,5.593
3837,7.656
3838,7.532
3839,6.233
3840,6.646
3841,6.521
3842,6.667
3843,6.667
3844,6.862
3845,7.350
3846,7.803
3847,5.874
3848,5.656
3849,5.852
3850,4.896
3851,6.880
3852,7.469
3853,7.309
3854,7.341
3855,6.669
3856,5.905
3857,5.667
3858,5.673
3859,5.312
3860,6.294
3861,6.081
3862,5.389
3863,6.781
3864,7.261
3865,6.054
3866,5.667
3867,5.538
3868,5.574
3869,4.964
3870,5.156
3871,6.308
3872,5.671
3873,5.826
3874,7.326
3875,7.375
3876,6.723
3877,7.488
3878,7.081
3879,6.667
3880,6.782
3881,7.513
3882,7.715
3883,7.098
3884,6.453
3885,5.809
3886,5.834
3887,6.000
3888,6.000
3889,6.000
3890,6.824
3891,6.992
3892,6.210
3893,6.019
3894,6.274
3895,6.333
3896,6.001
3897,5.265
3898,4.712
3899,5.319
3900,5.333
3901,5.931
3902,7.715
3903,7.208
3904,6.928
3905,6.345
3906,6.272
3907,6.401
3908,6.344
3909,6.667
3910,6.667
3911,6.667
3912,5.973
3913,6.017
3914,6.118
3915,5.497
3916,4.829
3917,4.185
3918,3.667
3919,3.667
3920,4.497
3921,5.286
3922,5.980
3923,5.668
3924,5.667
3925,6.496
3926,6.867
3927,6.663
3928,6.769
3929,6.882
3930,7.527
3931,8.171
3932,8.667
3933,7.755
3934,7.695
3935,7.112
3936,5.656
3937,4.963
3938,4.667
3939,4.979
3940,5.665
3941,4.904
3942,5.194
3943,5.542
3944,5.883
3945,6.786
3946,7.667
3947,7.315
3948,7.357
3949,6.893
3950,6.021
3951,6.256
3952,6.541
3953,7.314
3954,6.532
3955,6.346
3956,5.716
3957,5.246
3958,5.103
3959,5.528
3960,6.130
3961,6.560
3962,6.667
3963,6.742
3964,6.934
3965,5.951
3966,5.194
3967,5.549
3968,5.189
3969,4.571
3970,5.638
3971,5.751
3972,5.231
3973,5.814
3974,6.884
3975,7.634
3976,7.230
3977,6.387
3978,5.859
3979,5.520
3980,5.529
3981,6.018
3982,6.667
3983,6.650
3984,5.786
3985,6.343
3986,7.126
3987,6.393
3988,6.333
3989,6.280
3990,6.411
3991,6.841
3992,6.860
3993,6.383
3994,6.373
3995,5.710
3996,7.142
3997,8.045
3998,7.908
3999,8.336
4000,7.692
4001,7.020
4002,6.511
4003,6.842
4004,7.574
4005,7.667
4006,6.727
4007,5.804
4008,4.799
4009,5.021
4010,5.922
4011,6.426
4012,6.058
4013,6.532
4014,6.001
4015,5.874
4016,6.053
4017,5.168
4018,5.850
4019,6.274
4020,6.667
4021,6.667
4022,6.528
4023,5.963
4024,5.901
4025,6.579
4026,5.935
4027,6.395
4028,7.646
4029,7.001
4030,6.412
4031,5.712
4032,5.279
4033,5.695
4034,6.450
4035,5.258
4036,4.073
4037,4.997
4038,5.941
4039,6.000
4040,6.314
4041,6.902
4042,7.666
4043,7.667
4044,7.667
4045,7.475
4046,6.378
4047,6.005
4048,6.855
4049,7.314
4050,6.667
4051,6.667
4052,7.314
4053,7.667
4054,7.353
4055,5.760
4056,5.365
4057,5.093
4058,5.569
4059,6.333
