Distance_(pixels),Gray_Value
0,23.837
1,23.708
2,23.647
3,23.333
4,23.372
5,23.833
6,23.827
7,23.266
8,23.026
9,23.131
10,23.176
11,23.215
12,23.465
13,23.949
14,23.929
15,23.545
16,23.186
17,22.901
18,22.897
19,22.821
20,22.833
21,23.612
22,24.096
23,23.856
24,23.756
25,23.365
26,23.054
27,22.615
28,22.583
29,22.737
30,23.003
31,23.054
32,23.337
33,23.497
34,23.359
35,23.010
36,22.875
37,22.872
38,22.808
39,22.724
40,22.962
41,23.244
42,23.647
43,23.740
44,23.606
45,23.503
46,22.955
47,22.619
48,22.423
49,22.449
50,22.862
51,22.821
52,22.756
53,23.327
54,23.330
55,22.792
56,22.901
57,22.776
58,23.019
59,22.833
60,22.946
61,23.574
62,23.510
63,22.946
64,23.093
65,23.224
66,23.071
67,22.744
68,22.442
69,22.404
70,22.141
71,21.891
72,22.186
73,22.240
74,22.638
75,22.763
76,22.712
77,22.853
78,22.686
79,21.779
80,21.705
81,21.705
82,21.782
83,21.667
84,21.577
85,21.599
86,21.343
87,21.026
88,20.756
89,20.708
90,20.596
91,20.596
92,20.821
93,20.926
94,20.901
95,20.888
96,20.859
97,20.817
98,20.404
99,19.837
100,19.808
101,19.827
102,19.936
103,20.196
104,20.506
105,20.478
106,20.449
107,19.151
108,18.333
109,18.641
110,18.638
111,19.208
112,19.696
113,20.131
114,20.212
115,19.679
116,19.109
117,19.109
118,19.090
119,18.821
120,19.276
121,19.420
122,19.631
123,19.708
124,19.994
125,20.292
126,20.269
127,19.817
128,19.410
129,19.301
130,19.349
131,19.474
132,19.824
133,20.458
134,20.519
135,20.115
136,19.679
137,19.737
138,19.779
139,19.904
140,20.333
141,20.651
142,20.635
143,20.183
144,19.696
145,19.381
146,19.410
147,19.718
148,20.529
149,20.990
150,20.811
151,20.455
152,20.218
153,20.449
154,20.526
155,20.420
156,20.484
157,20.657
158,20.378
159,19.955
160,20.038
161,20.115
162,20.484
163,20.676
164,20.744
165,20.782
166,20.923
167,20.875
168,20.699
169,21.208
170,21.176
171,20.849
172,20.795
173,20.872
174,20.647
175,20.394
176,20.593
177,20.401
178,20.449
179,20.462
180,20.503
181,20.647
182,20.683
183,20.654
184,20.728
185,21.019
186,21.221
187,21.080
188,21.087
189,21.128
190,21.071
191,21.080
192,20.920
193,20.699
194,20.667
195,20.532
196,20.413
197,20.731
198,20.894
199,20.875
200,21.000
201,21.144
202,21.122
203,21.006
204,21.006
205,21.083
206,21.340
207,21.282
208,21.250
209,21.327
210,21.369
211,21.090
212,20.958
213,21.237
214,21.452
215,21.394
216,21.218
217,21.160
218,21.106
219,21.038
220,21.061
221,21.090
222,21.221
223,21.321
224,21.689
225,21.862
226,21.740
227,21.436
228,21.394
229,21.587
230,21.474
231,21.407
232,21.282
233,21.186
234,21.449
235,21.458
236,21.724
237,22.205
238,22.375
239,22.010
240,21.987
241,22.058
242,22.231
243,21.843
244,21.657
245,21.869
246,21.894
247,22.026
248,22.186
249,22.234
250,22.321
251,21.984
252,21.673
253,21.913
254,22.064
255,21.644
256,21.683
257,21.311
258,21.260
259,21.577
260,22.038
261,23.077
262,23.388
263,22.779
264,22.500
265,22.587
266,22.750
267,22.933
268,23.292
269,23.692
270,23.827
271,23.458
272,23.013
273,22.756
274,22.647
275,22.804
276,23.125
277,23.381
278,23.455
279,23.090
280,23.189
281,23.122
282,23.131
283,22.926
284,23.016
285,23.260
286,23.365
287,23.465
288,23.308
289,23.122
290,23.125
291,23.202
292,23.442
293,23.551
294,23.455
295,23.333
296,23.282
297,23.577
298,23.734
299,23.221
300,22.673
301,22.564
302,22.715
303,22.708
304,22.795
305,22.926
306,23.272
307,23.465
308,23.843
309,24.176
310,24.247
311,24.093
312,24.183
313,24.952
314,25.567
315,25.298
316,24.833
317,24.763
318,24.497
319,24.353
320,24.471
321,24.433
322,24.663
323,25.179
324,25.545
325,25.949
326,25.670
327,25.064
328,24.974
329,25.128
330,25.583
331,25.840
332,26.109
333,26.436
334,26.478
335,26.083
336,26.208
337,25.564
338,25.295
339,25.465
340,26.048
341,26.561
342,26.644
343,26.179
344,26.202
345,26.494
346,26.862
347,26.785
348,26.724
349,26.910
350,26.917
351,26.564
352,26.365
353,26.708
354,26.840
355,26.615
356,26.577
357,26.385
358,26.138
359,25.965
360,26.010
361,25.779
362,25.888
363,25.099
364,24.657
365,24.747
366,24.734
367,24.724
368,24.651
369,24.715
370,24.478
371,24.298
372,24.317
373,24.619
374,25.016
375,25.061
376,25.128
377,25.000
378,24.901
379,24.484
380,24.554
381,25.032
382,25.212
383,24.955
384,24.920
385,25.167
386,25.285
387,24.798
388,24.635
389,24.929
390,25.083
391,24.606
392,24.734
393,24.587
394,24.551
395,24.538
396,24.404
397,24.314
398,24.231
399,24.061
400,24.022
401,24.051
402,24.231
403,24.141
404,24.189
405,24.776
406,25.051
407,24.606
408,24.542
409,24.567
410,24.606
411,24.596
412,24.654
413,24.599
414,24.433
415,24.218
416,23.913
417,23.849
418,23.942
419,23.856
420,24.112
421,25.083
422,25.718
423,25.593
424,25.750
425,25.808
426,26.029
427,25.974
428,26.038
429,26.423
430,26.535
431,26.615
432,26.365
433,26.378
434,26.253
435,26.058
436,26.279
437,26.628
438,26.478
439,26.051
440,26.535
441,27.093
442,27.744
443,27.894
444,27.949
445,27.795
446,27.583
447,27.429
448,27.542
449,28.000
450,28.048
451,27.628
452,27.276
453,27.385
454,27.304
455,27.115
456,27.446
457,27.144
458,27.279
459,27.237
460,27.042
461,27.407
462,27.631
463,27.074
464,26.606
465,26.240
466,26.413
467,26.862
468,27.657
469,28.144
470,28.173
471,27.897
472,27.407
473,27.285
474,27.119
475,26.949
476,27.106
477,27.500
478,27.631
479,27.375
480,27.228
481,27.160
482,27.106
483,26.731
484,26.564
485,26.776
486,26.792
487,26.981
488,27.221
489,27.375
490,27.596
491,27.378
492,27.141
493,27.433
494,27.535
495,27.176
496,27.337
497,27.256
498,27.529
499,27.497
500,27.574
501,27.920
502,27.708
503,27.321
504,27.385
505,27.625
506,27.574
507,27.353
508,27.410
509,27.599
510,27.679
511,27.574
512,27.728
513,28.381
514,28.785
515,27.747
516,26.817
517,26.503
518,25.846
519,25.881
520,26.340
521,26.500
522,27.093
523,26.734
524,26.490
525,26.439
526,26.285
527,26.449
528,26.878
529,26.660
530,26.587
531,26.144
532,25.939
533,26.631
534,26.965
535,26.679
536,26.176
537,25.875
538,25.641
539,25.580
540,25.824
541,26.186
542,26.208
543,25.644
544,25.224
545,25.019
546,25.029
547,25.167
548,25.641
549,26.324
550,26.468
551,26.000
552,26.026
553,26.160
554,26.462
555,26.340
556,26.519
557,26.808
558,26.872
559,26.529
560,26.330
561,26.455
562,26.442
563,26.330
564,26.292
565,26.484
566,26.439
567,26.340
568,26.497
569,26.830
570,27.147
571,27.144
572,27.215
573,27.378
574,27.401
575,27.253
576,27.304
577,27.333
578,27.375
579,27.269
580,27.090
581,27.288
582,27.484
583,27.298
584,27.340
585,27.224
586,27.119
587,27.141
588,27.417
589,27.378
590,27.420
591,27.564
592,27.625
593,27.981
594,28.481
595,28.109
596,27.708
597,27.603
598,27.596
599,27.256
600,27.167
601,27.071
602,27.516
603,27.516
604,27.535
605,27.785
606,27.375
607,26.869
608,26.423
609,26.285
610,26.458
611,26.849
612,27.391
613,28.465
614,28.910
615,28.260
616,27.667
617,27.301
618,27.099
619,26.990
620,27.087
621,27.635
622,27.955
623,27.772
624,27.654
625,27.814
626,27.792
627,27.631
628,27.753
629,27.625
630,27.760
631,27.994
632,28.619
633,29.013
634,29.266
635,28.679
636,28.308
637,28.667
638,29.016
639,29.051
640,29.266
641,29.603
642,29.920
643,29.696
644,29.590
645,29.897
646,30.163
647,29.971
648,30.048
649,30.016
650,30.346
651,30.019
652,29.869
653,30.362
654,30.474
655,30.058
656,30.045
657,29.984
658,30.093
659,29.888
660,29.606
661,29.837
662,30.138
663,29.917
664,29.606
665,29.635
666,29.750
667,29.250
668,28.567
669,27.929
670,27.657
671,27.106
672,27.054
673,26.971
674,27.587
675,27.715
676,28.388
677,29.308
678,29.628
679,29.538
680,29.705
681,29.904
682,30.093
683,29.878
684,29.737
685,30.266
686,30.590
687,30.205
688,30.176
689,30.484
690,30.571
691,30.407
692,30.407
693,30.981
694,31.561
695,31.929
696,32.317
697,32.994
698,33.446
699,33.317
700,33.333
701,33.439
702,33.490
703,33.256
704,33.394
705,33.590
706,33.663
707,33.715
708,33.747
709,33.455
710,33.378
711,33.753
712,33.910
713,34.583
714,35.272
715,35.308
716,35.417
717,35.853
718,36.138
719,35.712
720,35.731
721,35.747
722,35.843
723,35.494
724,35.240
725,35.683
726,35.968
727,35.635
728,35.708
729,35.647
730,35.946
731,36.192
732,36.830
733,37.333
734,37.577
735,37.151
736,37.112
737,37.625
738,37.715
739,36.702
740,35.750
741,35.301
742,35.256
743,34.862
744,34.952
745,35.147
746,35.308
747,35.058
748,35.016
749,34.958
750,35.054
751,35.288
752,35.551
753,35.651
754,35.885
755,35.103
756,34.215
757,34.019
758,34.228
759,33.702
760,34.212
761,34.490
762,34.596
763,33.788
764,33.436
765,33.510
766,33.484
767,33.548
768,33.715
769,33.657
770,33.667
771,33.314
772,33.224
773,33.811
774,34.228
775,33.875
776,33.474
777,33.353
778,33.353
779,32.510
780,31.936
781,31.484
782,31.292
783,30.801
784,30.702
785,30.952
786,31.061
787,31.071
788,31.468
789,32.119
790,32.026
791,31.503
792,31.016
793,30.468
794,30.458
795,30.519
796,30.603
797,30.897
798,31.010
799,30.394
800,30.199
801,29.917
802,29.872
803,29.455
804,29.397
805,29.737
806,29.897
807,29.708
808,29.929
809,29.994
810,30.131
811,29.452
812,29.173
813,29.099
814,28.955
815,28.718
816,28.644
817,28.471
818,28.176
819,27.731
820,27.660
821,27.968
822,28.061
823,27.705
824,28.006
825,28.058
826,28.455
827,28.554
828,28.631
829,28.766
830,28.423
831,28.048
832,27.532
833,27.638
834,27.593
835,27.670
836,28.077
837,28.067
838,27.795
839,27.580
840,27.689
841,27.984
842,28.205
843,28.269
844,28.567
845,28.958
846,29.115
847,28.740
848,28.276
849,28.042
850,27.965
851,27.638
852,27.593
853,27.747
854,27.689
855,27.615
856,27.833
857,27.606
858,27.689
859,27.356
860,27.676
861,28.308
862,28.250
863,28.071
864,27.702
865,27.699
866,27.535
867,27.250
868,27.173
869,27.208
870,27.029
871,26.593
872,26.458
873,26.465
874,26.679
875,26.458
876,26.196
877,26.577
878,26.679
879,26.038
880,25.936
881,25.837
882,25.946
883,25.817
884,25.609
885,25.782
886,25.942
887,25.500
888,25.763
889,25.872
890,26.282
891,26.375
892,26.199
893,26.109
894,26.064
895,25.795
896,25.792
897,25.792
898,25.728
899,25.340
900,25.362
901,25.417
902,25.346
903,24.872
904,24.853
905,24.958
906,25.266
907,25.894
908,26.247
909,26.362
910,26.244
911,25.670
912,25.362
913,25.003
914,24.888
915,24.878
916,25.186
917,25.760
918,26.067
919,25.631
920,25.529
921,24.978
922,24.647
923,24.929
924,25.439
925,26.032
926,26.481
927,26.157
928,25.583
929,25.276
930,24.811
931,24.683
932,24.920
933,25.006
934,25.106
935,25.090
936,25.250
937,25.599
938,25.612
939,25.285
940,25.192
941,25.099
942,24.984
943,24.853
944,25.080
945,25.365
946,25.510
947,25.135
948,24.801
949,25.087
950,25.429
951,25.827
952,25.968
953,26.170
954,26.631
955,26.728
956,26.785
957,27.183
958,27.170
959,26.981
960,26.760
961,26.516
962,26.407
963,26.561
964,26.827
965,27.324
966,27.609
967,27.288
968,27.446
969,27.846
970,28.840
971,29.189
972,29.580
973,30.292
974,30.365
975,30.064
976,30.006
977,30.141
978,30.340
979,30.208
980,30.196
981,29.971
982,30.151
983,30.506
984,31.112
985,31.381
986,32.176
987,32.920
988,33.821
989,34.266
990,34.625
991,35.279
992,35.804
993,36.413
994,37.199
995,37.349
996,37.657
997,38.429
998,38.817
999,38.779
1000,38.875
1001,38.795
1002,38.958
1003,38.397
1004,38.244
1005,38.676
1006,39.093
1007,39.574
1008,40.298
1009,40.753
1010,41.429
1011,40.997
1012,40.644
1013,41.157
1014,41.545
1015,41.397
1016,41.840
1017,41.788
1018,41.984
1019,42.292
1020,42.593
1021,42.792
1022,42.885
1023,42.766
1024,43.167
1025,43.349
1026,43.833
1027,43.824
1028,43.756
1029,44.266
1030,44.532
1031,43.997
1032,43.276
1033,42.853
1034,43.077
1035,43.231
1036,43.750
1037,44.362
1038,44.455
1039,44.167
1040,44.224
1041,44.327
1042,44.542
1043,44.564
1044,44.490
1045,44.788
1046,45.269
1047,45.151
1048,45.340
1049,45.679
1050,46.292
1051,46.718
1052,47.045
1053,47.276
1054,47.279
1055,46.968
1056,46.750
1057,46.292
1058,46.244
1059,46.058
1060,46.058
1061,46.253
1062,45.958
1063,45.506
1064,45.462
1065,45.192
1066,45.010
1067,44.968
1068,44.910
1069,44.603
1070,44.378
1071,44.215
1072,44.343
1073,44.705
1074,45.237
1075,44.872
1076,44.702
1077,45.538
1078,46.010
1079,45.606
1080,45.554
1081,44.696
1082,43.955
1083,43.654
1084,43.824
1085,43.878
1086,44.202
1087,44.359
1088,44.349
1089,44.429
1090,44.506
1091,44.375
1092,44.446
1093,44.779
1094,45.135
1095,45.176
1096,45.522
1097,45.747
1098,46.006
1099,45.997
1100,45.721
1101,45.340
1102,44.920
1103,44.535
1104,44.519
1105,44.061
1106,43.971
1107,43.987
1108,44.234
1109,44.814
1110,45.359
1111,45.535
1112,45.442
1113,45.487
1114,46.026
1115,46.279
1116,46.519
1117,47.224
1118,47.705
1119,47.135
1120,46.551
1121,45.978
1122,45.548
1123,45.484
1124,45.394
1125,45.080
1126,44.997
1127,45.083
1128,45.705
1129,46.109
1130,46.532
1131,46.170
1132,45.667
1133,45.696
1134,45.978
1135,45.795
1136,45.897
1137,45.792
1138,45.875
1139,45.487
1140,45.401
1141,45.728
1142,45.965
1143,45.583
1144,45.577
1145,45.353
1146,45.369
1147,45.179
1148,45.147
1149,45.417
1150,45.567
1151,45.385
1152,45.260
1153,45.625
1154,45.686
1155,45.160
1156,44.638
1157,44.292
1158,44.016
1159,43.587
1160,43.603
1161,43.346
1162,43.369
1163,42.859
1164,42.446
1165,42.189
1166,42.125
1167,41.974
1168,42.458
1169,42.516
1170,42.827
1171,42.654
1172,42.369
1173,42.548
1174,42.689
1175,42.218
1176,41.699
1177,41.266
1178,41.160
1179,40.599
1180,40.487
1181,40.590
1182,40.301
1183,40.144
1184,40.000
1185,39.981
1186,39.901
1187,39.785
1188,39.946
1189,39.894
1190,39.840
1191,39.327
1192,39.202
1193,39.199
1194,39.577
1195,38.984
1196,38.455
1197,38.311
1198,38.128
1199,37.266
1200,36.679
1201,36.314
1202,36.317
1203,35.686
1204,35.160
1205,35.003
1206,35.010
1207,34.702
1208,34.853
1209,34.458
1210,34.522
1211,34.151
1212,34.228
1213,34.744
1214,35.135
1215,34.506
1216,34.170
1217,33.564
1218,33.115
1219,32.022
1220,31.545
1221,31.548
1222,31.295
1223,31.112
1224,30.490
1225,30.397
1226,30.375
1227,30.125
1228,29.760
1229,29.715
1230,29.856
1231,29.362
1232,29.571
1233,30.269
1234,30.638
1235,30.189
1236,29.503
1237,28.923
1238,28.718
1239,29.083
1240,29.702
1241,30.170
1242,30.288
1243,30.288
1244,30.846
1245,31.663
1246,32.010
1247,31.939
1248,31.808
1249,32.237
1250,32.542
1251,32.359
1252,32.404
1253,32.811
1254,33.221
1255,33.397
1256,33.808
1257,34.429
1258,35.103
1259,34.631
1260,34.231
1261,34.147
1262,33.917
1263,34.029
1264,34.314
1265,34.788
1266,35.003
1267,35.013
1268,35.298
1269,35.660
1270,35.728
1271,35.529
1272,35.279
1273,35.266
1274,35.583
1275,35.955
1276,36.353
1277,36.833
1278,36.869
1279,36.333
1280,35.478
1281,35.038
1282,35.189
1283,35.760
1284,36.599
1285,37.218
1286,37.651
1287,37.821
1288,38.064
1289,38.224
1290,38.247
1291,37.423
1292,36.574
1293,36.093
1294,35.920
1295,36.058
1296,36.417
1297,36.635
1298,36.920
1299,36.516
1300,36.154
1301,36.375
1302,36.420
1303,36.413
1304,37.103
1305,37.891
1306,38.872
1307,39.269
1308,39.702
1309,39.946
1310,40.061
1311,40.744
1312,41.333
1313,42.016
1314,42.878
1315,43.452
1316,43.894
1317,44.506
1318,44.939
1319,44.917
1320,45.029
1321,45.087
1322,45.439
1323,45.548
1324,45.769
1325,46.410
1326,46.965
1327,47.317
1328,47.705
1329,47.644
1330,47.763
1331,47.776
1332,47.737
1333,48.074
1334,47.952
1335,47.551
1336,47.000
1337,47.167
1338,47.590
1339,47.920
1340,48.853
1341,49.696
1342,50.301
1343,50.327
1344,50.369
1345,50.439
1346,50.769
1347,50.542
1348,50.433
1349,50.452
1350,50.571
1351,50.599
1352,50.740
1353,50.369
1354,50.103
1355,49.869
1356,49.888
1357,50.122
1358,50.314
1359,50.433
1360,50.978
1361,50.920
1362,51.381
1363,51.529
1364,51.590
1365,51.869
1366,52.135
1367,51.657
1368,51.724
1369,51.939
1370,52.458
1371,52.641
1372,52.692
1373,52.490
1374,52.253
1375,51.910
1376,51.644
1377,51.356
1378,51.538
1379,51.651
1380,52.369
1381,53.423
1382,53.673
1383,53.125
1384,52.647
1385,52.670
1386,52.875
1387,53.000
1388,53.163
1389,52.920
1390,52.827
1391,53.218
1392,53.811
1393,54.135
1394,54.494
1395,54.747
1396,54.952
1397,55.423
1398,55.862
1399,55.404
1400,54.949
1401,54.439
1402,54.010
1403,53.567
1404,53.599
1405,53.288
1406,52.965
1407,53.022
1408,53.705
1409,54.446
1410,55.500
1411,55.481
1412,55.407
1413,55.878
1414,56.295
1415,55.978
1416,55.612
1417,55.385
1418,55.481
1419,54.990
1420,54.798
1421,54.946
1422,54.734
1423,54.404
1424,54.503
1425,54.426
1426,54.301
1427,53.891
1428,53.946
1429,53.792
1430,53.878
1431,53.981
1432,54.452
1433,54.631
1434,54.724
1435,54.744
1436,54.792
1437,55.087
1438,55.285
1439,54.756
1440,54.929
1441,55.099
1442,55.654
1443,54.356
1444,52.942
1445,52.462
1446,52.096
1447,52.737
1448,53.981
1449,53.913
1450,54.516
1451,55.218
1452,55.926
1453,56.484
1454,56.862
1455,56.929
1456,56.933
1457,57.071
1458,57.215
1459,56.811
1460,56.167
1461,56.603
1462,57.349
1463,57.042
1464,57.385
1465,56.901
1466,56.663
1467,56.359
1468,56.327
1469,55.901
1470,55.301
1471,55.279
1472,55.311
1473,55.381
1474,55.468
1475,55.798
1476,56.449
1477,56.994
1478,57.160
1479,56.202
1480,55.449
1481,55.077
1482,54.994
1483,54.304
1484,53.587
1485,53.119
1486,52.647
1487,52.202
1488,52.074
1489,51.846
1490,51.920
1491,51.349
1492,51.019
1493,51.846
1494,52.558
1495,52.337
1496,51.542
1497,50.554
1498,49.644
1499,49.176
1500,49.218
1501,49.372
1502,49.843
1503,50.147
1504,50.545
1505,50.747
1506,51.321
1507,51.263
1508,51.003
1509,50.949
1510,50.606
1511,49.929
1512,49.423
1513,49.103
1514,48.821
1515,48.285
1516,47.942
1517,47.715
1518,47.744
1519,47.849
1520,48.670
1521,48.663
1522,48.987
1523,48.734
1524,48.590
1525,49.083
1526,49.708
1527,49.487
1528,49.417
1529,49.131
1530,49.151
1531,49.077
1532,49.109
1533,49.314
1534,49.596
1535,49.163
1536,49.045
1537,48.667
1538,48.298
1539,47.734
1540,47.288
1541,46.987
1542,46.679
1543,46.138
1544,45.708
1545,45.324
1546,45.628
1547,45.269
1548,45.058
1549,44.837
1550,44.096
1551,43.080
1552,42.561
1553,42.433
1554,42.647
1555,42.420
1556,42.144
1557,41.846
1558,41.356
1559,40.997
1560,40.529
1561,40.026
1562,39.712
1563,39.147
1564,38.971
1565,39.138
1566,39.343
1567,39.160
1568,38.955
1569,38.801
1570,38.622
1571,38.106
1572,37.779
1573,37.696
1574,37.615
1575,37.529
1576,37.920
1577,38.385
1578,38.532
1579,38.359
1580,38.519
1581,38.731
1582,38.670
1583,38.529
1584,38.513
1585,38.500
1586,38.513
1587,38.625
1588,38.811
1589,38.712
1590,38.301
1591,38.067
1592,37.516
1593,37.529
1594,38.016
1595,38.154
1596,38.359
1597,39.115
1598,39.785
1599,39.500
1600,39.404
1601,39.176
1602,39.333
1603,39.106
1604,38.795
1605,39.032
1606,39.221
1607,38.817
1608,38.247
1609,38.212
1610,38.064
1611,37.920
1612,38.096
1613,38.119
1614,38.218
1615,38.407
1616,39.064
1617,38.923
1618,39.038
1619,38.917
1620,38.785
1621,38.824
1622,38.917
1623,38.968
1624,38.846
1625,38.897
1626,39.215
1627,39.439
1628,39.689
1629,39.840
1630,39.721
1631,39.420
1632,39.250
1633,38.994
1634,39.196
1635,39.462
1636,40.247
1637,41.019
1638,41.240
1639,41.324
1640,41.189
1641,41.426
1642,41.846
1643,42.218
1644,42.712
1645,43.519
1646,43.978
1647,43.856
1648,44.196
1649,44.083
1650,44.593
1651,44.968
1652,45.272
1653,45.837
1654,46.013
1655,45.894
1656,46.481
1657,46.487
1658,46.990
1659,47.612
1660,48.785
1661,50.010
1662,50.859
1663,51.484
1664,52.240
1665,53.250
1666,54.183
1667,53.718
1668,53.103
1669,53.381
1670,53.651
1671,53.369
1672,53.862
1673,54.205
1674,54.766
1675,54.644
1676,54.869
1677,54.577
1678,54.196
1679,54.577
1680,55.888
1681,56.724
1682,57.846
1683,58.144
1684,58.317
1685,58.417
1686,57.910
1687,57.080
1688,56.173
1689,55.776
1690,56.083
1691,55.958
1692,56.282
1693,57.478
1694,58.497
1695,59.099
1696,59.250
1697,59.231
1698,59.423
1699,58.910
1700,59.026
1701,58.792
1702,58.321
1703,58.740
1704,60.279
1705,61.635
1706,63.269
1707,63.856
1708,63.471
1709,63.083
1710,62.731
1711,62.032
1712,61.747
1713,61.567
1714,62.013
1715,62.170
1716,62.705
1717,63.205
1718,63.317
1719,63.516
1720,64.679
1721,65.849
1722,67.282
1723,67.587
1724,67.321
1725,66.596
1726,65.426
1727,64.513
1728,63.372
1729,63.869
1730,64.388
1731,64.702
1732,64.949
1733,65.135
1734,65.481
1735,65.503
1736,66.154
1737,66.676
1738,67.596
1739,67.061
1740,66.503
1741,65.811
1742,65.042
1743,65.122
1744,65.596
1745,66.112
1746,66.740
1747,66.619
1748,66.446
1749,66.968
1750,67.628
1751,67.593
1752,68.279
1753,69.349
1754,70.888
1755,70.327
1756,68.997
1757,68.224
1758,67.503
1759,66.744
1760,66.558
1761,65.455
1762,64.978
1763,65.189
1764,65.686
1765,65.740
1766,65.189
1767,64.814
1768,64.554
1769,64.519
1770,65.099
1771,65.715
1772,65.939
1773,65.679
1774,65.048
1775,64.080
1776,63.304
1777,63.205
1778,63.968
1779,63.683
1780,63.228
1781,63.038
1782,62.696
1783,62.631
1784,63.128
1785,62.936
1786,63.696
1787,63.410
1788,63.160
1789,64.026
1790,64.615
1791,64.978
1792,65.003
1793,64.776
1794,64.737
1795,65.292
1796,66.452
1797,67.282
1798,68.003
1799,68.449
1800,69.391
1801,69.740
1802,69.939
1803,69.628
1804,69.199
1805,68.750
1806,68.599
1807,68.974
1808,69.292
1809,68.962
1810,68.439
1811,67.474
1812,66.413
1813,66.103
1814,66.032
1815,66.365
1816,66.538
1817,65.298
1818,64.686
1819,64.522
1820,65.064
1821,66.356
1822,67.282
1823,67.282
1824,67.112
1825,67.228
1826,67.622
1827,67.503
1828,67.122
1829,66.628
1830,65.933
1831,65.958
1832,66.067
1833,66.141
1834,66.103
1835,65.788
1836,65.824
1837,65.724
1838,65.147
1839,63.750
1840,62.808
1841,61.628
1842,61.288
1843,62.163
1844,63.356
1845,64.503
1846,65.571
1847,65.532
1848,65.244
1849,64.234
1850,63.446
1851,63.548
1852,64.478
1853,65.202
1854,65.423
1855,65.311
1856,64.849
1857,64.436
1858,64.423
1859,63.929
1860,63.487
1861,63.199
1862,63.083
1863,63.128
1864,63.766
1865,64.263
1866,64.779
1867,64.196
1868,63.660
1869,63.337
1870,62.946
1871,62.667
1872,63.090
1873,63.032
1874,63.606
1875,63.272
1876,63.003
1877,63.266
1878,63.186
1879,62.782
1880,62.401
1881,61.378
1882,60.811
1883,60.436
1884,60.234
1885,60.346
1886,60.407
1887,59.875
1888,59.388
1889,59.856
1890,60.622
1891,60.702
1892,60.433
1893,60.192
1894,59.811
1895,59.308
1896,58.897
1897,58.051
1898,57.484
1899,57.317
1900,57.314
1901,57.122
1902,56.913
1903,56.458
1904,56.827
1905,57.125
1906,57.397
1907,56.978
1908,56.452
1909,56.125
1910,56.038
1911,55.407
1912,55.173
1913,55.298
1914,55.760
1915,55.593
1916,55.000
1917,54.433
1918,53.734
1919,52.587
1920,51.763
1921,50.587
1922,49.965
1923,48.984
1924,48.519
1925,48.340
1926,47.801
1927,47.160
1928,46.462
1929,45.397
1930,44.574
1931,43.875
1932,43.295
1933,42.340
1934,41.897
1935,41.567
1936,41.663
1937,41.321
1938,41.276
1939,40.641
1940,40.385
1941,40.208
1942,39.952
1943,39.875
1944,39.843
1945,39.782
1946,40.215
1947,39.958
1948,39.901
1949,39.708
1950,39.452
1951,39.429
1952,39.462
1953,39.872
1954,40.458
1955,39.962
1956,39.446
1957,39.369
1958,38.942
1959,38.542
1960,38.641
1961,38.494
1962,39.202
1963,39.769
1964,40.580
1965,41.131
1966,41.558
1967,41.670
1968,42.045
1969,42.381
1970,42.779
1971,43.093
1972,43.340
1973,44.186
1974,44.865
1975,44.340
1976,44.064
1977,43.843
1978,44.237
1979,43.840
1980,43.644
1981,43.577
1982,43.654
1983,44.804
1984,46.099
1985,47.526
1986,48.676
1987,47.987
1988,46.381
1989,45.657
1990,45.369
1991,45.567
1992,46.250
1993,46.949
1994,48.038
1995,47.647
1996,46.952
1997,47.599
1998,47.946
1999,47.894
2000,48.494
2001,48.660
2002,49.144
2003,49.308
2004,49.663
2005,51.029
2006,52.333
2007,52.580
2008,52.474
2009,53.478
2010,54.817
2011,54.821
2012,54.381
2013,54.606
2014,55.330
2015,55.429
2016,56.333
2017,58.000
2018,60.715
2019,61.763
2020,62.429
2021,62.885
2022,63.237
2023,63.526
2024,63.779
2025,64.176
2026,64.984
2027,65.837
2028,66.865
2029,67.712
2030,68.122
2031,68.272
2032,68.426
2033,69.135
2034,70.237
2035,70.417
2036,70.750
2037,71.324
2038,71.397
2039,71.157
2040,70.792
2041,70.894
2042,71.308
2043,71.478
2044,71.478
2045,71.513
2046,71.458
2047,70.760
2048,69.494
2049,68.263
2050,67.744
2051,67.071
2052,66.587
2053,66.804
2054,67.115
2055,67.545
2056,68.731
2057,69.833
2058,71.712
2059,71.971
2060,71.728
2061,71.712
2062,71.840
2063,72.064
2064,72.407
2065,72.766
2066,74.029
2067,74.426
2068,74.859
2069,75.625
2070,75.942
2071,75.946
2072,76.564
2073,77.317
2074,78.939
2075,78.936
2076,78.558
2077,78.196
2078,78.321
2079,78.811
2080,79.497
2081,79.330
2082,79.301
2083,79.744
2084,80.657
2085,81.962
2086,83.308
2087,84.074
2088,84.814
2089,84.179
2090,83.503
2091,82.625
2092,82.231
2093,82.795
2094,83.750
2095,85.157
2096,86.433
2097,86.663
2098,86.218
2099,84.901
2100,83.471
2101,82.510
2102,82.340
2103,83.119
2104,85.394
2105,87.462
2106,89.061
2107,89.446
2108,88.843
2109,87.587
2110,86.317
2111,85.542
2112,85.875
2113,85.715
2114,86.593
2115,87.327
2116,88.000
2117,89.301
2118,89.997
2119,90.112
2120,90.282
2121,90.208
2122,90.038
2123,88.885
2124,87.474
2125,86.513
2126,86.071
2127,85.545
2128,85.503
2129,86.231
2130,87.147
2131,87.455
2132,87.330
2133,86.606
2134,84.881
2135,82.981
2136,81.615
2137,82.080
2138,84.077
2139,85.131
2140,86.058
2141,86.330
2142,85.686
2143,85.186
2144,84.772
2145,84.686
2146,84.663
2147,83.519
2148,81.917
2149,82.474
2150,83.420
2151,84.343
2152,85.429
2153,86.006
2154,86.667
2155,86.006
2156,84.837
2157,83.724
2158,82.766
2159,82.413
2160,82.756
2161,83.497
2162,84.247
2163,84.375
2164,83.804
2165,85.263
2166,87.099
2167,86.747
2168,86.397
2169,85.407
2170,84.875
2171,84.734
2172,84.939
2173,85.558
2174,85.660
2175,85.542
2176,85.131
2177,84.423
2178,84.080
2179,83.676
2180,83.503
2181,83.333
2182,83.385
2183,83.776
2184,84.843
2185,84.468
2186,83.990
2187,83.054
2188,82.224
2189,82.327
2190,82.929
2191,82.628
2192,82.782
2193,83.106
2194,83.609
2195,83.817
2196,83.513
2197,82.958
2198,82.051
2199,81.619
2200,81.853
2201,80.212
2202,78.596
2203,78.026
2204,77.718
2205,76.946
2206,76.497
2207,76.154
2208,76.436
2209,76.817
2210,77.513
2211,77.718
2212,77.926
2213,77.785
2214,77.199
2215,77.010
2216,77.346
2217,78.029
2218,79.343
2219,78.891
2220,77.990
2221,77.853
2222,77.253
2223,76.869
2224,76.686
2225,77.199
2226,77.974
2227,77.958
2228,76.984
2229,76.519
2230,76.391
2231,75.904
2232,75.990
2233,75.631
2234,75.878
2235,75.782
2236,75.564
2237,75.849
2238,75.699
2239,75.455
2240,75.410
2241,74.766
2242,74.295
2243,72.734
2244,71.804
2245,72.019
2246,72.054
2247,72.756
2248,73.561
2249,73.686
2250,73.218
2251,71.939
2252,70.702
2253,69.644
2254,68.580
2255,67.603
2256,66.628
2257,65.753
2258,64.804
2259,63.769
2260,63.006
2261,62.657
2262,62.561
2263,62.484
2264,62.776
2265,62.545
2266,62.478
2267,61.179
2268,59.635
2269,58.096
2270,56.429
2271,55.574
2272,55.833
2273,55.381
2274,55.571
2275,55.010
2276,54.785
2277,54.891
2278,54.740
2279,53.324
2280,51.942
2281,50.782
2282,50.397
2283,50.202
2284,50.260
2285,50.147
2286,49.747
2287,49.798
2288,49.878
2289,49.756
2290,49.442
2291,49.096
2292,48.779
2293,48.426
2294,48.263
2295,47.622
2296,47.074
2297,46.497
2298,46.593
2299,46.304
2300,45.891
2301,45.654
2302,45.192
2303,44.894
2304,45.125
2305,45.218
2306,45.343
2307,44.888
2308,43.929
2309,43.221
2310,42.779
2311,42.304
2312,42.423
2313,42.654
2314,42.756
2315,42.099
2316,41.147
2317,40.375
2318,40.087
2319,39.817
2320,40.032
2321,40.032
2322,40.538
2323,40.699
2324,41.423
2325,42.202
2326,42.622
2327,43.824
2328,44.667
2329,46.071
2330,48.205
2331,49.644
2332,50.907
2333,51.821
2334,51.856
2335,52.128
2336,53.074
2337,54.035
2338,56.128
2339,58.157
2340,60.333
2341,63.038
2342,65.574
2343,67.548
2344,68.811
2345,69.837
2346,70.574
2347,70.045
2348,69.769
2349,70.282
2350,70.846
2351,71.333
2352,71.897
2353,72.163
2354,72.846
2355,72.981
2356,73.465
2357,74.647
2358,75.699
2359,75.965
2360,75.949
2361,75.679
2362,76.038
2363,76.144
2364,76.619
2365,77.625
2366,78.737
2367,78.974
2368,79.433
2369,80.949
2370,82.580
2371,83.667
2372,84.596
2373,85.131
2374,84.785
2375,83.753
2376,82.769
2377,83.468
2378,85.003
2379,85.426
2380,85.205
2381,84.849
2382,84.522
2383,83.256
2384,82.388
2385,82.074
2386,82.952
2387,84.401
2388,86.756
2389,88.147
2390,88.708
2391,88.282
2392,87.747
2393,88.122
2394,89.051
2395,89.394
2396,89.824
2397,91.080
2398,91.638
2399,91.295
2400,91.032
2401,91.218
2402,91.766
2403,91.929
2404,92.612
2405,93.676
2406,94.186
2407,94.343
2408,93.952
2409,93.760
2410,94.372
2411,95.628
2412,97.208
2413,98.683
2414,99.548
2415,100.022
2416,99.897
2417,100.000
2418,100.638
2419,100.728
2420,100.494
2421,99.718
2422,98.196
2423,98.240
2424,99.311
2425,98.619
2426,97.558
2427,96.535
2428,96.452
2429,97.760
2430,99.497
2431,100.087
2432,99.603
2433,98.369
2434,97.359
2435,98.013
2436,99.760
2437,102.423
2438,105.077
2439,105.894
2440,105.494
2441,105.173
2442,105.205
2443,103.939
2444,102.667
2445,102.917
2446,103.721
2447,104.301
2448,104.888
2449,103.314
2450,101.487
2451,102.128
2452,104.054
2453,105.756
2454,106.920
2455,106.186
2456,104.814
2457,102.574
2458,101.587
2459,99.955
2460,99.237
2461,101.763
2462,104.490
2463,107.696
2464,110.035
2465,110.417
2466,109.478
2467,108.128
2468,107.372
2469,107.510
2470,107.391
2471,106.804
2472,105.865
2473,105.433
2474,105.676
2475,104.971
2476,104.644
2477,106.301
2478,108.423
2479,109.500
2480,109.955
2481,111.301
2482,112.724
2483,112.083
2484,110.526
2485,109.728
2486,108.949
2487,107.545
2488,106.593
2489,107.654
2490,110.054
2491,111.054
2492,111.256
2493,112.500
2494,113.394
2495,112.968
2496,112.096
2497,112.077
2498,112.599
2499,112.343
2500,111.542
2501,110.413
2502,108.926
2503,107.234
2504,106.131
2505,106.853
2506,108.795
2507,109.542
2508,110.298
2509,111.827
2510,112.997
2511,113.894
2512,114.859
2513,114.308
2514,113.215
2515,110.301
2516,107.657
2517,106.997
2518,107.587
2519,107.522
2520,107.808
2521,106.760
2522,106.330
2523,106.119
2524,106.022
2525,106.452
2526,106.452
2527,105.260
2528,103.994
2529,102.407
2530,102.901
2531,103.391
2532,104.833
2533,107.997
2534,110.827
2535,112.282
2536,112.744
2537,112.394
2538,111.692
2539,109.051
2540,105.910
2541,104.167
2542,103.083
2543,102.077
2544,101.756
2545,101.516
2546,102.032
2547,102.734
2548,103.183
2549,103.840
2550,104.000
2551,103.462
2552,102.740
2553,103.208
2554,103.865
2555,103.471
2556,102.590
2557,101.375
2558,100.208
2559,99.128
2560,97.660
2561,97.192
2562,97.798
2563,97.362
2564,97.067
2565,97.115
2566,96.776
2567,96.462
2568,96.657
2569,96.683
2570,97.186
2571,96.026
2572,94.744
2573,93.878
2574,93.494
2575,94.670
2576,96.244
2577,96.910
2578,96.843
2579,94.769
2580,92.378
2581,91.606
2582,91.885
2583,91.933
2584,92.413
2585,91.535
2586,89.984
2587,88.442
2588,88.003
2589,86.984
2590,86.526
2591,86.186
2592,85.920
2593,84.875
2594,84.240
2595,83.724
2596,84.131
2597,86.016
2598,88.276
2599,90.663
2600,92.359
2601,93.010
2602,93.429
2603,92.599
2604,91.478
2605,90.641
2606,90.699
2607,90.554
2608,90.824
2609,91.131
2610,92.173
2611,91.679
2612,90.609
2613,90.205
2614,90.583
2615,91.144
2616,91.952
2617,90.202
2618,88.353
2619,87.490
2620,87.744
2621,88.670
2622,89.446
2623,89.574
2624,89.218
2625,87.955
2626,87.119
2627,84.955
2628,82.756
2629,82.064
2630,81.910
2631,82.054
2632,82.385
2633,82.247
2634,82.263
2635,81.792
2636,81.548
2637,81.952
2638,82.756
2639,82.715
2640,82.199
2641,82.016
2642,82.343
2643,81.981
2644,81.676
2645,81.029
2646,80.135
2647,80.513
2648,81.554
2649,81.853
2650,82.003
2651,81.048
2652,79.997
2653,78.926
2654,78.196
2655,77.821
2656,78.554
2657,79.526
2658,80.737
2659,81.442
2660,81.673
2661,81.099
2662,80.266
2663,79.071
2664,78.372
2665,77.740
2666,77.792
2667,78.317
2668,79.522
2669,81.253
2670,82.910
2671,83.654
2672,83.112
2673,82.923
2674,83.051
2675,82.353
2676,81.692
2677,82.218
2678,83.872
2679,85.093
2680,86.763
2681,88.221
2682,90.038
2683,90.526
2684,90.644
2685,90.423
2686,90.442
2687,90.510
2688,90.949
2689,93.468
2690,96.458
2691,98.064
2692,98.926
2693,98.417
2694,96.696
2695,96.054
2696,96.660
2697,96.962
2698,98.397
2699,99.843
2700,101.679
2701,102.426
2702,102.561
2703,103.221
2704,104.237
2705,105.526
2706,107.298
2707,107.667
2708,107.006
2709,107.577
2710,108.205
2711,110.154
2712,112.035
2713,113.904
2714,115.397
2715,115.250
2716,114.071
2717,113.423
2718,113.276
2719,113.548
2720,114.016
2721,114.766
2722,115.446
2723,115.119
2724,114.391
2725,115.365
2726,117.128
2727,118.247
2728,119.151
2729,120.795
2730,123.244
2731,123.952
2732,124.381
2733,125.013
2734,125.314
2735,126.051
2736,126.429
2737,126.157
2738,126.426
2739,126.237
2740,127.035
2741,127.756
2742,128.026
2743,129.266
2744,130.353
2745,131.308
2746,132.186
2747,132.295
2748,132.753
2749,133.215
2750,134.054
2751,134.891
2752,136.519
2753,137.250
2754,137.413
2755,137.609
2756,137.404
2757,139.179
2758,141.433
2759,141.808
2760,141.830
2761,141.692
2762,142.202
2763,142.231
2764,142.699
2765,145.311
2766,148.192
2767,148.487
2768,147.888
2769,147.679
2770,148.298
2771,148.888
2772,149.564
2773,148.266
2774,146.051
2775,145.779
2776,146.587
2777,149.833
2778,154.151
2779,156.538
2780,157.740
2781,156.990
2782,154.965
2783,155.003
2784,155.500
2785,156.356
2786,157.798
2787,159.154
2788,159.429
2789,160.080
2790,160.263
2791,158.561
2792,156.141
2793,156.256
2794,158.542
2795,159.728
2796,160.612
2797,162.413
2798,163.282
2799,162.135
2800,159.958
2801,159.609
2802,161.250
2803,162.067
2804,162.644
2805,163.638
2806,164.109
2807,164.660
2808,165.074
2809,165.397
2810,166.128
2811,166.000
2812,166.026
2813,166.029
2814,165.513
2815,164.593
2816,163.946
2817,163.801
2818,164.929
2819,166.253
2820,167.849
2821,168.907
2822,169.096
2823,168.404
2824,167.510
2825,167.013
2826,167.321
2827,168.311
2828,169.635
2829,170.587
2830,170.712
2831,170.657
2832,170.660
2833,170.260
2834,170.006
2835,169.010
2836,167.660
2837,166.859
2838,166.574
2839,165.859
2840,165.324
2841,166.269
2842,167.965
2843,168.583
2844,168.343
2845,168.317
2846,167.728
2847,166.314
2848,164.285
2849,163.173
2850,163.176
2851,162.994
2852,162.391
2853,162.490
2854,161.997
2855,161.080
2856,160.103
2857,158.837
2858,158.099
2859,158.583
2860,159.904
2861,161.526
2862,162.285
2863,162.324
2864,162.048
2865,163.939
2866,167.090
2867,168.330
2868,168.510
2869,169.115
2870,168.577
2871,168.016
2872,167.080
2873,166.131
2874,166.603
2875,166.740
2876,167.240
2877,167.494
2878,167.487
2879,167.574
2880,167.801
2881,168.949
2882,171.006
2883,172.292
2884,172.865
2885,174.240
2886,174.875
2887,173.433
2888,170.769
2889,168.827
2890,167.792
2891,166.096
2892,164.849
2893,164.849
2894,165.327
2895,166.314
2896,167.375
2897,169.571
2898,172.224
2899,172.881
2900,171.904
2901,172.311
2902,172.744
2903,171.247
2904,168.003
2905,165.532
2906,164.712
2907,164.686
2908,165.067
2909,164.824
2910,163.875
2911,162.619
2912,161.067
2913,161.407
2914,163.362
2915,164.016
2916,164.708
2917,164.048
2918,162.144
2919,159.202
2920,156.343
2921,155.538
2922,156.567
2923,158.112
2924,159.529
2925,160.317
2926,159.304
2927,157.212
2928,154.728
2929,153.840
2930,154.891
2931,155.003
2932,155.228
2933,155.429
2934,155.394
2935,154.843
2936,154.327
2937,154.337
2938,155.343
2939,154.785
2940,153.378
2941,150.753
2942,147.324
2943,144.196
2944,143.362
2945,141.769
2946,140.987
2947,139.798
2948,138.321
2949,137.458
2950,136.785
2951,136.571
2952,137.080
2953,138.244
2954,140.391
2955,139.231
2956,136.051
2957,135.221
2958,135.163
2959,134.388
2960,133.609
2961,133.260
2962,134.151
2963,131.513
2964,127.734
2965,126.673
2966,126.808
2967,128.394
2968,130.490
2969,132.772
2970,134.593
2971,133.949
2972,132.074
2973,129.840
2974,127.978
2975,125.712
2976,123.917
2977,123.516
2978,124.189
2979,125.522
2980,127.474
2981,129.272
2982,130.228
2983,129.087
2984,126.369
2985,125.420
2986,126.397
2987,127.006
2988,127.840
2989,128.583
2990,128.571
2991,128.144
2992,127.365
2993,126.423
2994,126.135
2995,124.391
2996,123.099
2997,124.990
2998,128.317
2999,131.865
3000,135.016
3001,138.583
3002,142.013
3003,143.458
3004,142.955
3005,141.917
3006,140.096
3007,138.279
3008,136.266
3009,138.112
3010,142.580
3011,145.260
3012,147.154
3013,150.500
3014,153.814
3015,154.362
3016,151.907
3017,150.910
3018,150.465
3019,151.381
3020,152.615
3021,155.058
3022,157.151
3023,159.256
3024,160.740
3025,162.865
3026,164.731
3027,164.744
3028,163.587
3029,164.958
3030,166.920
3031,168.599
3032,169.612
3033,171.250
3034,173.821
3035,176.583
3036,178.147
3037,180.580
3038,182.564
3039,183.673
3040,183.423
3041,183.106
3042,183.292
3043,183.458
3044,184.285
3045,185.260
3046,185.750
3047,187.304
3048,188.522
3049,190.391
3050,192.772
3051,193.077
3052,192.689
3053,193.138
3054,194.298
3055,195.304
3056,196.702
3057,199.013
3058,201.526
3059,202.308
3060,202.144
3061,203.019
3062,204.247
3063,203.683
3064,202.167
3065,200.651
3066,200.013
3067,199.503
3068,200.106
3069,201.138
3070,202.218
3071,203.785
3072,205.471
3073,205.978
3074,206.375
3075,206.138
3076,206.128
3077,207.795
3078,210.372
3079,211.702
3080,212.106
3081,211.702
3082,211.308
3083,210.484
3084,210.022
3085,210.577
3086,211.619
3087,211.901
3088,211.689
3089,211.814
3090,212.413
3091,212.696
3092,212.872
3093,213.279
3094,213.564
3095,213.244
3096,212.349
3097,212.224
3098,212.837
3099,212.833
3100,212.340
3101,212.276
3102,212.561
3103,213.038
3104,213.702
3105,214.061
3106,214.327
3107,213.747
3108,212.862
3109,211.635
3110,210.638
3111,209.452
3112,208.936
3113,209.026
3114,209.817
3115,209.010
3116,207.324
3117,207.311
3118,207.859
3119,208.994
3120,210.532
3121,211.859
3122,212.731
3123,213.449
3124,214.093
3125,214.189
3126,214.106
3127,214.045
3128,214.708
3129,215.583
3130,217.215
3131,217.705
3132,217.522
3133,217.696
3134,218.122
3135,218.388
3136,218.571
3137,218.494
3138,218.391
3139,217.926
3140,217.321
3141,217.551
3142,218.051
3143,217.971
3144,218.051
3145,218.567
3146,219.478
3147,219.574
3148,219.330
3149,218.901
3150,218.183
3151,218.141
3152,218.724
3153,220.484
3154,222.763
3155,223.920
3156,223.878
3157,223.705
3158,223.340
3159,222.689
3160,222.487
3161,223.010
3162,224.119
3163,224.157
3164,223.029
3165,222.135
3166,221.673
3167,221.163
3168,220.888
3169,221.965
3170,223.663
3171,223.615
3172,222.324
3173,221.359
3174,220.708
3175,220.067
3176,219.696
3177,221.263
3178,223.388
3179,224.019
3180,223.478
3181,223.471
3182,223.766
3183,222.327
3184,220.750
3185,220.532
3186,221.772
3187,222.673
3188,223.397
3189,223.772
3190,222.984
3191,223.013
3192,223.446
3193,224.455
3194,225.317
3195,225.096
3196,224.327
3197,224.141
3198,224.660
3199,224.343
3200,223.619
3201,223.141
3202,223.090
3203,222.766
3204,222.817
3205,223.362
3206,224.769
3207,225.016
3208,225.131
3209,224.558
3210,224.279
3211,223.532
3212,222.901
3213,223.372
3214,224.721
3215,225.859
3216,226.567
3217,227.083
3218,226.891
3219,226.474
3220,225.936
3221,224.619
3222,223.176
3223,222.394
3224,222.792
3225,223.785
3226,225.369
3227,225.231
3228,223.779
3229,223.590
3230,224.138
3231,224.462
3232,224.910
3233,225.135
3234,225.401
3235,224.689
3236,223.728
3237,223.647
3238,224.183
3239,224.619
3240,225.147
3241,225.522
3242,225.849
3243,225.958
3244,225.824
3245,226.385
3246,227.256
3247,227.337
3248,226.641
3249,225.753
3250,224.535
3251,224.359
3252,225.054
3253,226.067
3254,227.058
3255,227.208
3256,226.122
3257,225.410
3258,224.939
3259,224.394
3260,224.112
3261,224.340
3262,224.753
3263,224.760
3264,224.516
3265,224.462
3266,224.404
3267,224.978
3268,225.583
3269,225.551
3270,225.247
3271,224.894
3272,224.968
3273,225.048
3274,225.272
3275,225.295
3276,225.093
3277,225.196
3278,225.077
3279,224.888
3280,225.090
3281,225.356
3282,226.176
3283,226.923
3284,227.763
3285,229.029
3286,230.154
3287,230.798
3288,230.734
3289,229.596
3290,227.962
3291,226.510
3292,225.667
3293,225.846
3294,226.663
3295,227.641
3296,228.612
3297,228.821
3298,228.756
3299,228.288
3300,227.603
3301,226.731
3302,225.862
3303,225.548
3304,225.625
3305,226.183
3306,227.340
3307,227.442
3308,227.237
3309,226.756
3310,226.324
3311,227.029
3312,228.192
3313,228.074
3314,226.897
3315,225.708
3316,224.933
3317,224.811
3318,225.077
3319,225.612
3320,226.397
3321,226.795
3322,226.881
3323,227.292
3324,227.663
3325,227.936
3326,228.096
3327,227.353
3328,226.462
3329,225.801
3330,225.750
3331,225.766
3332,225.888
3333,226.186
3334,226.244
3335,226.433
3336,226.279
3337,226.433
3338,227.051
3339,227.519
3340,227.667
3341,228.051
3342,228.202
3343,227.673
3344,226.955
3345,226.692
3346,226.686
3347,226.487
3348,226.279
3349,226.295
3350,226.192
3351,226.157
3352,226.311
3353,226.500
3354,226.808
3355,226.673
3356,226.337
3357,226.208
3358,226.122
3359,226.064
3360,226.228
3361,226.420
3362,226.869
3363,226.494
3364,225.910
3365,225.035
3366,224.330
3367,223.660
3368,223.433
3369,222.452
3370,221.304
3371,220.401
3372,219.567
3373,219.766
3374,220.343
3375,220.260
3376,219.538
3377,219.077
3378,218.990
3379,219.381
3380,220.696
3381,222.083
3382,222.859
3383,223.404
3384,223.410
3385,223.183
3386,222.894
3387,222.599
3388,222.256
3389,221.676
3390,220.897
3391,220.356
3392,220.522
3393,220.247
3394,219.849
3395,219.740
3396,220.010
3397,220.747
3398,221.740
3399,222.151
3400,222.045
3401,221.747
3402,221.285
3403,221.157
3404,221.692
3405,221.808
3406,221.471
3407,221.663
3408,222.369
3409,221.897
3410,220.907
3411,219.958
3412,219.253
3413,218.817
3414,218.843
3415,219.077
3416,219.561
3417,220.670
3418,222.176
3419,222.362
3420,221.785
3421,221.413
3422,221.042
3423,220.683
3424,220.625
3425,220.788
3426,221.353
3427,221.561
3428,221.311
3429,221.272
3430,221.353
3431,220.622
3432,219.670
3433,218.676
3434,218.048
3435,217.715
3436,217.804
3437,218.160
3438,218.644
3439,218.314
3440,217.490
3441,216.635
3442,216.356
3443,215.990
3444,216.016
3445,216.247
3446,216.532
3447,216.913
3448,217.391
3449,217.689
3450,217.426
3451,216.939
3452,216.163
3453,215.506
3454,214.644
3455,214.846
3456,215.487
3457,216.016
3458,216.519
3459,217.010
3460,217.272
3461,216.779
3462,215.353
3463,214.192
3464,213.670
3465,214.115
3466,215.163
3467,215.458
3468,214.788
3469,214.304
3470,213.875
3471,213.663
3472,213.984
3473,214.292
3474,214.731
3475,215.163
3476,215.471
3477,215.609
3478,215.651
3479,215.202
3480,214.567
3481,213.087
3482,211.385
3483,210.106
3484,209.753
3485,209.689
3486,210.433
3487,211.147
3488,211.840
3489,212.465
3490,212.776
3491,211.369
3492,208.897
3493,208.474
3494,209.455
3495,210.792
3496,211.849
3497,212.202
3498,211.946
3499,211.391
3500,211.019
3501,210.260
3502,208.891
3503,207.929
3504,207.471
3505,207.458
3506,207.558
3507,207.115
3508,206.375
3509,205.869
3510,206.048
3511,206.340
3512,206.468
3513,206.253
3514,206.301
3515,205.856
3516,205.369
3517,205.603
3518,206.067
3519,206.378
3520,206.715
3521,206.708
3522,206.907
3523,206.317
3524,205.740
3525,204.196
3526,202.846
3527,201.282
3528,200.157
3529,199.853
3530,200.311
3531,200.385
3532,200.647
3533,201.545
3534,202.705
3535,202.933
3536,202.359
3537,201.311
3538,200.314
3539,199.314
3540,198.798
3541,199.298
3542,200.487
3543,200.330
3544,199.407
3545,199.106
3546,199.542
3547,199.106
3548,198.490
3549,198.561
3550,198.936
3551,198.728
3552,197.692
3553,197.301
3554,197.263
3555,197.087
3556,196.872
3557,196.455
3558,195.952
3559,196.202
3560,197.292
3561,198.218
3562,199.417
3563,199.471
3564,198.356
3565,196.840
3566,195.119
3567,193.567
3568,192.814
3569,191.705
3570,190.910
3571,189.798
3572,188.913
3573,188.141
3574,187.494
3575,187.503
3576,187.106
3577,186.824
3578,186.840
3579,186.285
3580,185.064
3581,184.971
3582,185.244
3583,184.013
3584,182.013
3585,180.881
3586,181.317
3587,181.013
3588,180.904
3589,181.186
3590,181.567
3591,180.551
3592,178.772
3593,177.548
3594,177.356
3595,176.833
3596,176.516
3597,175.913
3598,174.115
3599,171.654
3600,169.288
3601,166.410
3602,164.173
3603,161.564
3604,159.846
3605,158.538
3606,158.096
3607,157.250
3608,156.529
3609,154.670
3610,153.240
3611,149.615
3612,145.657
3613,143.401
3614,142.904
3615,142.103
3616,141.574
3617,140.554
3618,139.683
3619,136.981
3620,133.990
3621,129.673
3622,125.365
3623,120.446
3624,116.567
3625,113.603
3626,112.862
3627,111.519
3628,109.849
3629,107.612
3630,105.160
3631,104.365
3632,104.808
3633,106.641
3634,109.808
3635,110.939
3636,110.795
3637,110.878
3638,110.587
3639,110.907
3640,111.080
3641,112.878
3642,115.542
3643,115.686
3644,114.276
3645,113.365
3646,113.638
3647,113.478
3648,113.141
3649,112.526
3650,112.279
3651,110.958
3652,109.333
3653,109.372
3654,110.510
3655,111.260
3656,111.599
3657,111.715
3658,112.215
3659,113.446
3660,114.926
3661,117.051
3662,118.933
3663,117.471
3664,114.016
3665,111.731
3666,111.715
3667,113.272
3668,116.215
3669,117.808
3670,117.897
3671,117.538
3672,116.269
3673,115.881
3674,116.497
3675,117.946
3676,119.163
3677,121.356
3678,123.728
3679,124.712
3680,123.183
3681,122.990
3682,123.311
3683,123.923
3684,124.333
3685,125.853
3686,127.622
3687,128.131
3688,127.692
3689,128.103
3690,130.253
3691,131.631
3692,132.362
3693,133.375
3694,134.260
3695,134.317
3696,133.218
3697,132.891
3698,134.077
3699,135.638
3700,137.263
3701,139.292
3702,140.724
3703,142.349
3704,143.215
3705,144.837
3706,147.304
3707,149.071
3708,150.228
3709,151.449
3710,151.894
3711,151.901
3712,151.683
3713,152.567
3714,154.596
3715,155.449
3716,155.622
3717,155.606
3718,155.186
3719,155.311
3720,155.282
3721,156.394
3722,158.740
3723,160.346
3724,161.327
3725,163.176
3726,164.340
3727,163.811
3728,162.218
3729,160.984
3730,161.038
3731,160.712
3732,160.397
3733,160.731
3734,161.279
3735,162.064
3736,162.574
3737,162.119
3738,161.503
3739,160.952
3740,160.830
3741,162.426
3742,165.019
3743,166.946
3744,167.240
3745,167.167
3746,167.910
3747,167.163
3748,165.808
3749,166.253
3750,167.567
3751,168.080
3752,168.048
3753,168.051
3754,168.096
3755,168.340
3756,168.946
3757,169.256
3758,169.240
3759,168.939
3760,168.231
3761,168.673
3762,170.119
3763,170.849
3764,171.526
3765,171.897
3766,171.458
3767,171.122
3768,170.503
3769,170.292
3770,170.728
3771,171.016
3772,170.897
3773,171.032
3774,171.058
3775,171.167
3776,171.679
3777,172.256
3778,172.756
3779,172.615
3780,171.997
3781,171.869
3782,171.929
3783,172.490
3784,172.875
3785,173.240
3786,174.087
3787,173.484
3788,172.481
3789,171.224
3790,170.458
3791,169.423
3792,168.978
3793,168.208
3794,167.490
3795,167.788
3796,168.753
3797,169.253
3798,169.000
3799,168.510
3800,167.843
3801,168.212
3802,169.429
3803,169.522
3804,168.500
3805,168.529
3806,169.446
3807,169.580
3808,169.644
3809,168.913
3810,168.782
3811,167.506
3812,166.381
3813,166.144
3814,166.247
3815,165.872
3816,165.051
3817,164.064
3818,164.119
3819,164.157
3820,164.519
3821,164.769
3822,164.465
3823,164.003
3824,163.817
3825,162.869
3826,161.933
3827,161.096
3828,160.875
3829,161.516
3830,162.385
3831,162.551
3832,161.971
3833,161.910
3834,162.231
3835,162.564
3836,162.679
3837,162.231
3838,161.138
3839,160.244
3840,159.401
3841,159.311
3842,160.346
3843,160.465
3844,160.359
3845,159.792
3846,159.269
3847,158.763
3848,158.981
3849,158.590
3850,157.949
3851,156.244
3852,153.564
3853,152.442
3854,152.590
3855,151.446
3856,150.240
3857,149.301
3858,149.317
3859,148.865
3860,148.298
3861,148.071
3862,147.910
3863,147.734
3864,147.837
3865,146.538
3866,145.619
3867,143.442
3868,141.660
3869,140.782
3870,140.285
3871,138.628
3872,136.234
3873,133.532
3874,131.054
3875,127.196
3876,123.452
3877,119.099
3878,115.067
3879,111.615
3880,110.394
3881,109.830
3882,110.782
3883,112.429
3884,114.103
3885,115.324
3886,115.699
3887,116.196
3888,116.417
3889,116.394
3890,116.926
3891,116.167
3892,114.692
3893,113.718
3894,112.487
3895,112.952
3896,114.019
3897,115.603
3898,117.622
3899,116.763
3900,113.971
3901,112.385
3902,111.327
3903,110.561
3904,110.933
3905,110.692
3906,111.022
3907,110.571
3908,109.455
3909,108.939
3910,109.038
3911,108.288
3912,106.670
3913,104.949
3914,103.990
3915,102.663
3916,101.548
3917,100.006
3918,97.673
3919,96.785
3920,96.462
3921,95.907
3922,95.670
3923,95.343
3924,94.808
3925,93.712
3926,91.740
3927,89.651
3928,87.577
3929,85.859
3930,85.628
3931,85.455
3932,85.099
3933,84.702
3934,84.064
3935,83.548
3936,83.670
3937,82.808
3938,81.628
3939,80.298
3940,79.455
3941,79.000
3942,78.429
3943,77.692
3944,76.894
3945,75.519
3946,74.712
3947,73.478
3948,72.744
3949,71.795
3950,70.519
3951,69.904
3952,70.208
3953,69.811
3954,69.561
3955,69.272
3956,69.154
3957,69.311
3958,69.571
3959,69.788
3960,69.782
3961,69.760
3962,70.016
3963,70.154
3964,70.218
3965,70.994
3966,71.952
3967,71.667
3968,69.702
3969,69.381
3970,70.167
3971,70.221
3972,69.949
3973,69.298
3974,68.333
3975,68.045
3976,68.295
3977,68.952
3978,70.378
3979,71.234
3980,71.862
3981,71.984
3982,72.269
3983,72.939
3984,74.744
3985,75.205
3986,75.385
3987,75.644
3988,76.458
3989,77.840
3990,79.099
3991,80.426
3992,81.051
3993,81.612
3994,83.362
3995,84.378
3996,85.314
3997,86.212
3998,86.160
3999,85.926
4000,85.968
4001,87.138
4002,89.788
4003,91.801
4004,92.946
4005,94.426
4006,95.359
4007,95.045
4008,93.696
4009,93.837
4010,96.122
4011,97.272
4012,97.702
4013,98.071
4014,98.196
4015,98.096
4016,98.256
4017,97.683
4018,96.840
4019,96.106
4020,96.340
4021,97.096
4022,98.333
4023,100.038
4024,102.051
4025,102.359
4026,102.022
4027,101.558
4028,101.385
4029,102.554
4030,104.228
4031,104.548
4032,102.962
4033,102.183
4034,102.869
4035,103.272
4036,103.199
4037,103.548
4038,103.718
4039,102.545
4040,100.449
4041,100.369
4042,102.997
4043,105.202
4044,108.228
4045,109.471
4046,108.314
4047,105.099
4048,101.667
4049,99.782
4050,101.846
4051,102.750
4052,103.923
4053,106.417
4054,109.545
4055,110.676
4056,110.038
4057,110.058
4058,110.965
4059,111.237
4060,111.404
4061,112.218
4062,113.362
4063,113.811
4064,113.567
4065,113.926
4066,114.865
4067,116.295
4068,118.343
4069,122.119
4070,126.035
4071,128.141
4072,129.240
4073,130.340
4074,131.583
4075,131.737
4076,131.016
4077,128.545
4078,124.763
4079,120.728
4080,118.971
4081,118.042
4082,120.080
4083,122.481
4084,124.391
4085,125.308
4086,125.532
4087,124.609
4088,123.635
4089,123.853
4090,125.962
4091,126.413
4092,126.260
4093,126.138
4094,125.840
4095,124.513
4096,123.224
4097,121.856
4098,121.237
4099,121.263
4100,122.122
4101,124.603
4102,126.837
4103,128.093
4104,128.103
4105,127.500
4106,127.096
4107,127.212
4108,127.228
4109,126.766
4110,125.484
4111,124.808
4112,125.321
4113,124.667
4114,124.224
4115,122.968
4116,121.625
4117,119.013
4118,115.885
4119,113.651
4120,113.103
4121,113.285
4122,115.115
4123,114.692
4124,112.705
4125,110.006
4126,106.599
4127,104.154
4128,103.542
4129,105.016
4130,108.782
4131,112.205
4132,114.224
4133,116.532
4134,118.545
4135,120.192
4136,121.683
4137,123.923
4138,126.462
4139,127.913
4140,128.285
4141,128.737
4142,128.785
4143,128.285
4144,127.045
4145,125.904
4146,125.109
4147,123.830
4148,122.731
4149,122.939
4150,124.231
4151,125.385
4152,125.692
4153,125.442
4154,124.962
4155,122.631
4156,120.840
4157,118.913
4158,117.936
4159,117.359
4160,117.449
4161,116.183
4162,114.606
4163,113.006
4164,112.894
4165,111.612
4166,110.144
4167,110.090
4168,110.939
4169,112.301
4170,114.212
4171,114.032
4172,112.186
4173,111.115
4174,111.163
4175,109.660
4176,106.913
4177,104.554
4178,104.404
4179,103.670
4180,103.667
4181,103.567
4182,103.878
4183,104.413
4184,105.301
4185,106.250
4186,107.788
4187,108.955
4188,109.407
4189,110.276
4190,110.587
4191,109.311
4192,106.375
4193,104.103
4194,104.619
4195,103.958
4196,103.830
4197,104.128
4198,103.987
4199,104.455
4200,104.090
4201,104.276
4202,105.619
4203,106.051
4204,105.606
4205,104.862
4206,103.737
4207,102.022
4208,100.119
4209,100.513
4210,103.516
4211,104.404
4212,102.974
4213,101.356
4214,99.019
4215,97.750
4216,97.631
4217,96.490
4218,95.449
4219,93.949
4220,92.676
4221,91.590
4222,90.692
4223,90.545
4224,91.038
4225,90.609
4226,90.122
4227,88.878
4228,87.564
4229,86.016
4230,84.853
4231,83.968
4232,84.199
4233,84.250
4234,84.538
4235,85.035
4236,85.215
4237,84.718
4238,84.106
4239,82.891
4240,81.997
4241,82.051
4242,83.708
4243,84.144
4244,83.221
4245,81.654
4246,78.779
4247,77.442
4248,77.417
4249,77.292
4250,77.795
4251,78.327
4252,78.913
4253,79.272
4254,79.205
4255,78.869
4256,77.247
4257,76.503
4258,77.010
4259,76.599
4260,75.103
4261,73.378
4262,71.577
4263,70.369
4264,70.208
4265,69.099
4266,68.224
4267,66.638
4268,65.314
4269,64.167
4270,63.112
4271,62.263
4272,62.141
4273,59.994
4274,56.865
4275,53.939
4276,52.003
4277,50.087
4278,48.321
4279,47.301
4280,47.753
4281,47.897
4282,48.705
4283,47.827
4284,46.369
4285,45.317
4286,44.474
4287,43.875
4288,43.865
4289,42.913
4290,42.151
4291,41.465
4292,41.359
4293,40.891
4294,40.465
4295,40.442
4296,40.785
4297,40.776
4298,40.821
4299,40.481
4300,40.455
4301,40.849
4302,41.183
4303,41.349
4304,41.042
4305,40.513
4306,40.051
4307,39.362
4308,39.074
4309,39.042
4310,39.282
4311,39.740
4312,39.981
4313,40.167
4314,40.622
4315,41.019
4316,41.308
4317,41.904
4318,41.981
4319,42.224
4320,42.596
4321,42.756
4322,43.651
4323,44.292
4324,45.170
4325,46.144
4326,47.276
4327,48.631
4328,49.571
4329,50.644
4330,52.603
4331,53.301
4332,53.202
4333,53.131
4334,52.904
4335,52.462
4336,51.984
4337,51.231
4338,51.176
4339,51.872
4340,53.426
4341,55.244
4342,57.202
4343,59.199
4344,60.683
4345,61.705
4346,62.776
4347,63.256
4348,64.385
4349,65.122
4350,65.756
4351,66.468
4352,66.481
4353,66.776
4354,67.481
4355,67.516
4356,67.622
4357,67.407
4358,67.875
4359,68.814
4360,69.949
4361,70.920
4362,72.013
4363,71.955
4364,71.737
4365,71.513
4366,72.099
4367,72.413
4368,72.907
4369,73.913
4370,75.465
4371,75.603
4372,74.596
4373,73.119
4374,71.458
4375,70.196
4376,70.160
4377,70.010
4378,70.494
4379,71.071
4380,72.112
4381,73.119
4382,73.519
4383,73.365
4384,72.859
4385,72.022
4386,72.173
4387,72.721
4388,73.654
4389,74.779
4390,76.109
4391,77.096
4392,77.939
4393,78.327
4394,78.407
4395,78.404
4396,78.603
4397,79.769
4398,81.462
4399,81.596
4400,80.737
4401,79.853
4402,80.407
4403,80.683
4404,80.413
4405,80.359
4406,80.994
4407,81.083
4408,81.173
4409,81.913
4410,84.000
4411,85.346
4412,86.724
4413,87.353
4414,87.314
4415,86.997
4416,86.837
4417,86.538
4418,87.083
4419,87.106
4420,86.753
4421,86.571
4422,86.679
4423,87.231
4424,87.670
4425,88.016
4426,88.811
4427,88.599
4428,88.529
4429,89.721
4430,91.840
4431,93.285
4432,93.923
4433,93.446
4434,92.756
4435,91.571
4436,90.308
4437,89.712
4438,89.176
4439,88.958
4440,89.221
4441,88.679
4442,88.811
4443,88.564
4444,88.458
4445,88.247
4446,88.260
4447,89.035
4448,90.756
4449,91.782
4450,92.510
4451,91.471
4452,89.221
4453,87.353
4454,87.026
4455,86.904
4456,87.824
4457,87.311
4458,87.272
4459,86.401
4460,85.240
4461,84.990
4462,85.298
4463,85.769
4464,86.503
4465,86.994
4466,87.288
4467,87.410
4468,87.667
4469,88.256
4470,88.788
4471,88.378
4472,86.827
4473,85.526
4474,85.141
4475,85.298
4476,85.974
4477,86.042
4478,85.721
4479,84.910
4480,84.035
4481,82.910
4482,82.901
4483,83.122
4484,83.731
4485,84.897
4486,85.631
4487,85.811
4488,85.058
4489,83.567
4490,83.250
4491,82.885
4492,83.308
4493,83.615
4494,83.228
4495,83.369
4496,83.881
4497,84.176
4498,84.628
4499,83.987
4500,83.340
4501,82.811
4502,82.253
4503,82.343
4504,82.872
4505,82.321
4506,82.529
4507,81.490
4508,80.029
4509,78.240
4510,76.276
4511,76.016
4512,77.375
4513,78.199
4514,79.304
4515,78.548
4516,76.141
4517,74.333
4518,73.410
4519,72.760
4520,73.468
4521,73.038
4522,73.112
4523,72.596
4524,71.596
4525,70.968
4526,70.542
4527,70.240
4528,69.878
4529,69.763
4530,70.135
4531,69.913
4532,69.228
4533,68.622
4534,68.571
4535,68.497
4536,69.090
4537,68.590
4538,68.978
4539,67.952
4540,66.942
4541,66.474
4542,66.093
4543,66.571
4544,67.003
4545,67.170
4546,66.933
4547,65.917
4548,64.506
4549,63.311
4550,62.442
4551,62.083
4552,62.240
4553,62.478
4554,62.946
4555,63.138
4556,63.340
4557,63.192
4558,62.817
4559,62.474
4560,62.622
4561,62.288
4562,62.833
4563,62.554
4564,61.349
4565,60.923
4566,61.157
4567,61.006
4568,60.372
4569,59.849
4570,59.487
4571,59.026
4572,58.189
4573,57.808
4574,57.442
4575,56.856
4576,56.038
4577,55.147
4578,54.535
4579,53.506
4580,53.045
4581,52.756
4582,51.958
4583,51.609
4584,51.452
4585,51.157
4586,51.022
4587,50.301
4588,49.734
4589,49.042
4590,48.503
4591,48.301
4592,48.340
4593,47.904
4594,48.167
4595,47.567
4596,46.487
4597,45.952
4598,45.603
4599,44.660
4600,44.087
4601,43.221
4602,42.740
4603,42.433
4604,42.138
4605,41.817
4606,41.487
4607,40.907
4608,40.676
4609,40.096
4610,39.772
4611,39.779
4612,40.292
4613,40.840
4614,41.026
4615,41.205
4616,41.071
4617,40.696
4618,40.365
4619,39.987
4620,39.609
4621,39.497
4622,39.571
4623,39.436
4624,38.962
4625,38.926
4626,39.276
4627,39.196
4628,38.856
4629,38.865
4630,38.917
4631,38.894
4632,38.651
4633,38.907
4634,39.423
4635,39.987
4636,40.683
4637,41.359
4638,42.122
4639,42.673
4640,43.035
4641,43.667
4642,45.571
4643,47.064
4644,48.388
4645,49.708
4646,50.949
4647,51.936
4648,52.189
4649,52.587
4650,53.394
4651,53.615
4652,53.074
4653,53.013
4654,53.644
4655,54.157
4656,54.439
4657,54.394
4658,54.792
4659,55.093
4660,54.869
4661,55.853
4662,57.913
4663,58.760
4664,58.974
4665,58.753
4666,59.093
4667,58.619
4668,57.779
4669,57.667
4670,57.760
4671,57.811
4672,57.869
4673,57.808
4674,58.885
4675,59.516
4676,59.747
4677,60.471
4678,61.378
4679,61.699
4680,61.830
4681,62.131
4682,63.106
4683,64.010
4684,65.032
4685,66.154
4686,66.917
4687,66.865
4688,66.154
4689,65.276
4690,65.119
4691,65.545
4692,66.952
4693,69.112
4694,70.865
4695,71.679
4696,71.179
4697,69.699
4698,68.939
4699,68.859
4700,69.625
4701,70.824
4702,71.660
4703,72.407
4704,71.853
4705,71.888
4706,73.212
4707,74.054
4708,73.891
4709,73.349
4710,72.913
4711,72.631
4712,72.526
4713,72.603
4714,73.048
4715,73.429
4716,74.221
4717,75.112
4718,75.712
4719,76.205
4720,76.215
4721,76.337
4722,77.247
4723,77.708
4724,78.058
4725,78.497
4726,78.490
4727,77.933
4728,77.141
4729,76.154
4730,76.933
4731,76.926
4732,76.917
4733,77.465
4734,77.897
4735,77.891
4736,77.151
4737,76.404
4738,76.538
4739,76.846
4740,77.728
4741,78.298
4742,78.189
4743,78.506
4744,78.869
4745,79.144
4746,80.093
4747,79.699
4748,78.731
4749,78.010
4750,77.984
4751,77.894
4752,77.686
4753,76.997
4754,75.888
4755,75.256
4756,75.619
4757,76.404
4758,77.080
4759,78.064
4760,79.170
4761,80.167
4762,80.782
4763,81.535
4764,82.260
4765,82.875
4766,83.077
4767,82.808
4768,82.154
4769,80.987
4770,80.308
4771,79.580
4772,79.612
4773,79.715
4774,79.446
4775,79.670
4776,79.417
4777,78.753
4778,77.625
4779,76.564
4780,76.147
4781,76.179
4782,76.811
4783,77.048
4784,77.631
4785,77.917
4786,78.433
4787,78.750
4788,79.452
4789,79.785
4790,80.183
4791,79.990
4792,79.308
4793,77.981
4794,77.170
4795,76.510
4796,76.715
4797,76.920
4798,76.846
4799,77.333
4800,77.542
4801,77.288
4802,77.356
4803,77.186
4804,77.423
4805,77.913
4806,78.324
4807,78.446
4808,78.388
4809,77.526
4810,76.708
4811,76.026
4812,75.590
4813,75.266
4814,75.702
4815,75.814
4816,75.324
4817,74.734
4818,74.760
4819,74.590
4820,74.641
4821,74.625
4822,74.654
4823,74.814
4824,74.740
4825,75.035
4826,75.647
4827,75.077
4828,73.571
4829,71.907
4830,71.292
4831,71.138
4832,71.375
4833,71.901
4834,72.635
4835,72.545
4836,71.872
4837,70.808
4838,70.061
4839,69.327
4840,69.353
4841,69.894
4842,71.756
4843,72.215
4844,71.577
4845,70.234
4846,68.853
4847,67.859
4848,67.612
4849,67.157
4850,66.561
4851,65.679
4852,65.548
4853,65.638
4854,65.853
4855,65.766
4856,65.474
4857,64.731
4858,64.240
4859,63.260
4860,62.022
4861,60.481
4862,59.388
4863,58.189
4864,57.051
4865,56.035
4866,55.420
4867,55.022
4868,55.154
4869,55.433
4870,55.859
4871,56.061
4872,55.968
4873,56.074
4874,56.317
4875,56.715
4876,57.340
4877,58.064
4878,58.917
4879,58.971
4880,58.462
4881,57.926
4882,57.596
4883,57.375
4884,57.468
4885,57.875
4886,58.407
4887,58.686
4888,58.913
4889,58.683
4890,59.186
4891,59.151
4892,59.010
4893,59.244
4894,59.378
4895,59.317
4896,59.167
4897,59.019
4898,59.221
4899,58.740
4900,58.003
4901,57.548
4902,57.000
4903,56.327
4904,55.484
4905,54.449
4906,54.067
4907,53.885
4908,53.731
4909,53.526
4910,53.160
4911,52.644
4912,52.202
4913,51.449
4914,51.189
4915,50.606
4916,50.083
4917,49.785
4918,49.625
4919,49.837
4920,49.994
4921,49.769
4922,49.740
4923,49.199
4924,48.821
4925,48.897
4926,49.308
4927,49.808
4928,49.792
4929,49.266
4930,49.324
4931,48.878
4932,48.923
4933,49.266
4934,49.564
4935,49.827
4936,49.522
4937,49.022
4938,49.288
4939,49.375
4940,49.006
4941,49.003
4942,49.676
4943,50.010
4944,50.202
4945,49.821
4946,49.548
4947,49.131
4948,48.622
4949,48.439
4950,48.490
4951,48.593
4952,48.458
4953,48.337
4954,48.974
4955,49.503
4956,50.035
4957,50.587
4958,50.994
4959,51.061
4960,51.436
4961,51.641
4962,52.288
4963,52.949
4964,52.926
4965,52.545
4966,52.016
4967,51.298
4968,51.231
4969,51.035
4970,51.647
4971,52.324
4972,52.968
4973,53.385
4974,53.712
4975,53.952
4976,53.875
4977,54.144
4978,54.378
4979,54.308
4980,54.266
4981,54.631
4982,55.090
4983,55.215
4984,55.500
4985,55.138
4986,55.397
4987,55.208
4988,54.545
4989,53.897
4990,53.583
4991,53.401
4992,53.375
4993,52.920
4994,52.881
4995,52.686
4996,53.465
4997,54.064
4998,54.904
4999,55.894
5000,56.064
5001,56.167
5002,56.731
5003,56.692
5004,56.260
5005,56.250
5006,56.554
5007,56.795
5008,56.753
5009,56.955
5010,57.721
5011,58.061
5012,57.869
5013,57.936
5014,58.455
5015,58.497
5016,59.458
5017,59.734
5018,60.721
5019,60.785
5020,60.388
5021,59.817
5022,59.494
5023,59.712
5024,59.513
5025,59.801
5026,60.285
5027,60.833
5028,61.792
5029,62.779
5030,63.413
5031,63.522
5032,63.538
5033,62.942
5034,62.609
5035,62.712
5036,62.929
5037,62.856
5038,62.712
5039,62.353
5040,62.103
5041,61.779
5042,61.913
5043,62.436
5044,63.115
5045,63.660
5046,63.785
5047,63.016
5048,62.019
5049,60.407
5050,60.272
5051,60.292
5052,60.753
5053,61.503
5054,62.170
5055,62.811
5056,63.702
5057,64.314
5058,65.420
5059,65.654
5060,64.994
5061,64.663
5062,64.939
5063,64.984
5064,64.478
5065,64.147
5066,64.343
5067,63.747
5068,62.699
5069,62.183
5070,62.413
5071,62.647
5072,62.824
5073,62.731
5074,62.388
5075,62.029
5076,61.481
5077,60.804
5078,60.526
5079,60.272
5080,60.234
5081,60.272
5082,61.429
5083,61.314
5084,60.548
5085,59.679
5086,58.772
5087,58.000
5088,58.413
5089,58.301
5090,58.699
5091,58.413
5092,58.087
5093,57.763
5094,57.304
5095,57.022
5096,56.772
5097,56.417
5098,56.516
5099,56.705
5100,56.974
5101,57.196
5102,57.567
5103,57.497
5104,56.923
5105,55.724
5106,55.413
5107,55.343
5108,55.330
5109,55.747
5110,56.192
5111,56.599
5112,56.744
5113,56.580
5114,57.212
5115,57.420
5116,57.785
5117,58.452
5118,59.208
5119,59.388
5120,59.083
5121,58.894
5122,58.715
5123,58.375
5124,58.170
5125,57.731
5126,57.949
5127,57.699
5128,56.840
5129,55.817
5130,55.212
5131,55.090
5132,55.090
5133,55.218
5134,55.628
5135,55.715
5136,55.529
5137,55.449
5138,55.824
5139,55.458
5140,54.619
5141,53.878
5142,52.939
5143,52.135
5144,51.670
5145,51.022
5146,50.426
5147,50.077
5148,50.038
5149,49.990
5150,50.554
5151,51.147
5152,51.542
5153,51.846
5154,52.670
5155,52.429
5156,51.413
5157,50.776
5158,50.769
5159,50.846
5160,51.071
5161,50.846
5162,50.715
5163,49.933
5164,49.407
5165,49.205
5166,48.968
5167,48.936
5168,48.763
5169,48.913
5170,49.548
5171,49.631
5172,49.176
5173,48.734
5174,48.455
5175,48.346
5176,48.327
5177,47.808
5178,48.016
5179,47.455
5180,46.869
5181,46.510
5182,46.096
5183,45.958
5184,45.926
5185,45.804
5186,45.962
5187,45.689
5188,45.244
5189,44.779
5190,44.821
5191,44.811
5192,44.551
5193,44.096
5194,44.163
5195,43.760
5196,43.407
5197,43.301
5198,43.468
5199,43.657
5200,43.388
5201,42.795
5202,42.522
5203,42.051
5204,41.731
5205,41.532
5206,41.740
5207,41.740
5208,41.394
5209,40.538
5210,39.843
5211,39.442
5212,39.609
5213,39.856
5214,40.074
5215,39.958
5216,39.516
5217,39.029
5218,38.952
5219,39.167
5220,39.244
5221,39.247
5222,39.282
5223,38.997
5224,38.811
5225,38.500
5226,38.788
5227,38.875
5228,39.141
5229,38.981
5230,38.676
5231,38.644
5232,38.686
5233,38.369
5234,38.612
5235,38.667
5236,38.353
5237,38.176
5238,38.612
5239,38.628
5240,38.446
5241,38.378
5242,38.154
5243,38.029
5244,38.167
5245,38.503
5246,38.875
5247,38.923
5248,38.869
5249,39.019
5250,39.372
5251,39.429
5252,39.282
5253,39.022
5254,38.750
5255,38.410
5256,38.901
5257,39.468
5258,40.471
5259,41.026
5260,40.888
5261,40.317
5262,40.051
5263,39.696
5264,40.429
5265,41.019
5266,42.173
5267,42.619
5268,42.260
5269,41.859
5270,41.821
5271,41.689
5272,41.612
5273,41.337
5274,41.439
5275,41.179
5276,40.955
5277,41.260
5278,41.824
5279,42.237
5280,41.913
5281,41.628
5282,41.343
5283,40.904
5284,41.263
5285,42.385
5286,44.401
5287,45.872
5288,45.772
5289,44.933
5290,44.276
5291,43.715
5292,43.788
5293,44.173
5294,44.901
5295,45.212
5296,44.795
5297,44.744
5298,45.215
5299,45.529
5300,45.647
5301,45.878
5302,46.343
5303,46.330
5304,45.458
5305,44.641
5306,45.186
5307,45.635
5308,46.221
5309,46.718
5310,46.897
5311,47.340
5312,47.077
5313,46.782
5314,47.449
5315,47.625
5316,47.497
5317,47.564
5318,47.731
5319,48.010
5320,48.256
5321,48.487
5322,49.074
5323,48.942
5324,48.353
5325,47.869
5326,47.894
5327,48.199
5328,48.917
5329,49.160
5330,49.436
5331,49.170
5332,48.798
5333,48.753
5334,49.250
5335,49.548
5336,48.567
5337,47.683
5338,47.013
5339,46.471
5340,46.212
5341,46.125
5342,46.333
5343,46.205
5344,46.872
5345,46.971
5346,47.891
5347,48.869
5348,49.772
5349,50.375
5350,51.167
5351,51.500
5352,51.240
5353,50.978
5354,51.942
5355,51.644
5356,50.452
5357,49.506
5358,49.000
5359,49.054
5360,49.311
5361,49.676
5362,50.481
5363,50.391
5364,50.308
5365,50.436
5366,51.099
5367,51.853
5368,52.497
5369,52.615
5370,53.359
5371,53.167
5372,52.045
5373,51.282
5374,51.308
5375,51.304
5376,51.218
5377,51.542
5378,52.212
5379,52.542
5380,52.580
5381,52.631
5382,52.901
5383,52.814
5384,52.442
5385,50.907
5386,49.394
5387,48.394
5388,48.407
5389,48.833
5390,49.535
5391,50.093
5392,50.452
5393,50.321
5394,50.381
5395,50.199
5396,50.186
5397,50.106
5398,49.891
5399,49.962
5400,50.468
5401,50.657
5402,52.019
5403,52.814
5404,52.939
5405,53.272
5406,53.612
5407,53.785
5408,53.010
5409,52.574
5410,52.689
5411,52.244
5412,51.712
5413,51.038
5414,50.869
5415,50.917
5416,51.048
5417,50.923
5418,50.542
5419,50.353
5420,50.984
5421,51.532
5422,52.000
5423,52.135
5424,51.760
5425,51.064
5426,51.349
5427,51.615
5428,51.183
5429,51.308
5430,51.644
5431,51.189
5432,49.638
5433,47.673
5434,46.237
5435,45.612
5436,46.077
5437,46.939
5438,47.199
5439,47.115
5440,47.048
5441,46.968
5442,47.577
5443,47.574
5444,46.958
5445,46.032
5446,45.090
5447,44.317
5448,44.426
5449,43.878
5450,43.981
5451,43.837
5452,43.282
5453,42.955
5454,43.022
5455,43.115
5456,44.026
5457,44.115
5458,45.196
5459,45.446
5460,44.904
5461,44.885
5462,45.000
5463,44.548
5464,43.872
5465,42.891
5466,42.599
5467,41.897
5468,41.558
5469,41.317
5470,40.962
5471,41.282
5472,41.362
5473,41.490
5474,42.397
5475,42.699
5476,42.202
5477,41.881
5478,41.455
5479,41.314
5480,41.452
5481,41.503
5482,41.971
5483,42.404
5484,42.849
5485,42.926
5486,43.109
5487,43.074
5488,42.997
5489,42.804
5490,42.824
5491,42.837
5492,42.926
5493,43.010
5494,43.208
5495,43.019
5496,42.721
5497,42.327
5498,42.760
5499,42.436
5500,41.503
5501,40.561
5502,40.115
5503,39.478
5504,39.026
5505,38.407
5506,37.946
5507,38.051
5508,38.516
5509,38.875
5510,39.490
5511,39.404
5512,39.074
5513,38.721
5514,38.641
5515,38.378
5516,38.000
5517,37.696
5518,37.904
5519,37.978
5520,37.548
5521,37.160
5522,37.131
5523,36.769
5524,36.721
5525,36.843
5526,37.093
5527,37.401
5528,37.404
5529,37.205
5530,37.429
5531,37.157
5532,36.468
5533,35.962
5534,35.753
5535,35.631
5536,36.122
5537,36.234
5538,36.926
5539,37.045
5540,36.881
5541,36.529
5542,35.776
5543,35.468
5544,35.442
5545,35.208
5546,35.244
5547,35.157
5548,35.154
5549,35.218
5550,35.035
5551,34.763
5552,34.519
5553,34.157
5554,34.006
5555,33.846
5556,34.058
5557,34.359
5558,34.628
5559,35.000
5560,34.846
5561,34.705
5562,34.981
5563,35.048
5564,34.990
5565,34.910
5566,35.042
5567,34.728
5568,34.737
5569,34.394
5570,34.657
5571,34.561
5572,34.224
5573,33.984
5574,33.702
5575,33.676
5576,33.676
5577,33.795
5578,34.266
5579,34.580
5580,34.609
5581,34.949
5582,35.433
5583,35.455
5584,35.407
5585,35.189
5586,35.385
5587,35.446
5588,35.381
5589,35.304
5590,35.413
5591,35.359
5592,35.353
5593,34.929
5594,35.298
5595,35.840
5596,36.266
5597,36.824
5598,37.744
5599,38.513
5600,38.676
5601,38.619
5602,38.824
5603,38.888
5604,38.526
5605,38.333
5606,38.337
5607,38.272
5608,38.962
5609,38.962
5610,38.917
5611,38.949
5612,39.048
5613,39.279
5614,40.061
5615,40.686
5616,40.769
5617,40.587
5618,40.997
5619,41.096
5620,40.673
5621,40.526
5622,40.763
5623,40.673
5624,40.538
5625,40.478
5626,40.494
5627,40.603
5628,41.093
5629,41.263
5630,41.702
5631,41.994
5632,41.917
5633,41.875
5634,42.026
5635,42.115
5636,41.843
5637,41.564
5638,41.391
5639,41.311
5640,41.897
5641,41.978
5642,42.423
5643,42.353
5644,42.176
5645,42.170
5646,42.410
5647,42.551
5648,43.199
5649,43.160
5650,42.968
5651,42.628
5652,42.253
5653,42.032
5654,42.077
5655,41.952
5656,42.006
5657,41.615
5658,41.564
5659,41.295
5660,41.035
5661,40.869
5662,41.670
5663,42.189
5664,42.369
5665,42.157
5666,42.747
5667,42.641
5668,42.426
5669,42.369
5670,42.337
5671,42.298
5672,42.404
5673,42.263
5674,42.554
5675,42.571
5676,42.337
5677,42.099
5678,42.337
5679,42.506
5680,42.494
5681,42.446
5682,42.596
5683,42.532
5684,42.295
5685,42.064
5686,42.237
5687,42.228
5688,42.324
5689,41.888
5690,42.173
5691,42.237
5692,42.189
5693,42.404
5694,42.984
5695,42.885
5696,43.176
5697,42.596
5698,42.647
5699,42.452
5700,41.824
5701,41.125
5702,40.923
5703,40.712
5704,41.128
5705,41.458
5706,42.103
5707,42.256
5708,42.282
5709,42.042
5710,41.808
5711,41.554
5712,41.215
5713,40.596
5714,40.596
5715,40.670
5716,40.657
5717,40.712
5718,41.192
5719,41.388
5720,41.285
5721,41.167
5722,41.266
5723,41.003
5724,40.897
5725,41.090
5726,41.564
5727,41.513
5728,41.346
5729,40.189
5730,39.814
5731,39.571
5732,39.231
5733,38.981
5734,39.080
5735,39.147
5736,39.022
5737,38.862
5738,39.292
5739,39.522
5740,39.484
5741,39.308
5742,39.179
5743,39.074
5744,38.968
5745,38.163
5746,38.199
5747,38.016
5748,37.804
5749,37.628
5750,37.292
5751,36.689
5752,36.750
5753,36.401
5754,37.468
5755,38.333
5756,38.208
5757,37.997
5758,37.824
5759,37.327
5760,37.099
5761,36.558
5762,36.045
5763,35.731
5764,35.865
5765,36.013
5766,36.115
5767,36.035
5768,35.564
5769,34.660
5770,34.638
5771,34.455
5772,34.199
5773,34.545
5774,35.196
5775,35.295
5776,34.542
5777,33.673
5778,33.609
5779,33.657
5780,33.728
5781,34.151
5782,34.603
5783,34.849
5784,33.971
5785,32.593
5786,31.881
5787,31.106
5788,30.763
5789,30.686
5790,30.567
5791,30.567
5792,31.135
5793,30.795
5794,30.849
5795,30.718
5796,30.385
5797,30.394
5798,30.974
5799,31.304
5800,31.683
5801,31.244
5802,30.846
5803,30.731
5804,30.779
5805,30.622
5806,30.929
5807,30.952
5808,30.811
5809,30.567
5810,30.635
5811,30.542
5812,31.199
5813,31.535
5814,31.776
5815,31.647
5816,31.250
5817,31.167
5818,31.702
5819,32.199
5820,32.077
5821,31.603
5822,31.417
5823,31.353
5824,31.494
5825,31.522
5826,32.314
5827,32.638
5828,32.269
5829,31.846
5830,31.510
5831,31.122
5832,30.885
5833,30.667
5834,30.776
5835,30.760
5836,30.622
5837,30.372
5838,30.375
5839,30.321
5840,30.288
5841,29.968
5842,30.256
5843,30.612
5844,30.763
5845,31.135
5846,31.901
5847,31.894
5848,31.503
5849,30.965
5850,30.712
5851,30.580
5852,30.740
5853,31.013
5854,31.449
5855,31.465
5856,31.263
5857,30.795
5858,31.010
5859,31.083
5860,31.067
5861,31.413
5862,31.583
5863,31.801
5864,31.923
5865,32.093
5866,32.763
5867,33.141
5868,33.599
5869,33.625
5870,33.337
5871,33.035
5872,33.224
5873,33.010
5874,33.580
5875,33.590
5876,33.093
5877,32.644
5878,32.596
5879,32.990
5880,33.237
5881,33.413
5882,33.917
5883,34.000
5884,33.667
5885,33.292
5886,33.298
5887,33.337
5888,33.417
5889,33.256
5890,33.997
5891,34.016
5892,33.407
5893,33.042
5894,32.875
5895,32.381
5896,32.737
5897,32.583
5898,33.000
5899,33.026
5900,32.808
5901,32.776
5902,33.308
5903,33.401
5904,33.135
5905,32.638
5906,32.356
5907,32.337
5908,32.619
5909,33.103
5910,33.272
5911,33.324
5912,33.375
5913,32.981
5914,32.904
5915,32.856
5916,32.936
5917,33.038
5918,33.413
5919,33.548
5920,33.064
5921,32.378
5922,32.696
5923,32.699
5924,32.728
5925,33.109
5926,33.676
5927,34.151
5928,34.272
5929,34.186
5930,34.708
5931,34.949
5932,35.176
5933,35.032
5934,34.529
5935,34.333
5936,34.080
5937,33.942
5938,34.282
5939,34.208
5940,34.083
5941,34.179
5942,34.497
5943,34.747
5944,35.260
5945,35.295
5946,35.641
5947,35.577
5948,35.186
5949,34.750
5950,34.865
5951,34.647
5952,35.032
5953,34.506
5954,34.583
5955,34.401
5956,33.872
5957,33.631
5958,34.067
5959,34.224
5960,34.401
5961,34.429
5962,34.997
5963,34.997
5964,34.702
5965,34.478
5966,34.346
5967,33.913
5968,34.000
5969,33.814
5970,33.673
5971,33.631
5972,33.795
5973,33.734
5974,33.718
5975,33.478
5976,33.631
5977,33.327
5978,33.606
5979,33.865
5980,34.064
5981,34.420
5982,34.712
5983,34.734
5984,34.173
5985,33.609
5986,33.753
5987,34.048
5988,34.276
5989,34.189
5990,33.901
5991,33.574
5992,33.449
5993,33.244
5994,33.817
5995,34.128
5996,34.234
5997,33.724
5998,33.471
5999,33.135
6000,33.401
6001,33.385
6002,33.558
6003,33.567
6004,33.494
6005,33.609
6006,33.888
6007,34.263
6008,34.189
6009,33.814
6010,33.622
6011,32.779
6012,32.407
6013,32.388
6014,32.558
6015,32.673
6016,32.696
6017,32.093
6018,31.856
6019,31.590
6020,31.308
6021,31.154
6022,31.240
6023,31.038
6024,31.484
6025,31.308
6026,31.609
6027,31.407
6028,30.497
6029,29.769
6030,29.503
6031,29.308
6032,28.853
6033,28.561
6034,28.567
6035,28.795
6036,28.891
6037,29.099
6038,29.490
6039,29.513
6040,29.529
6041,29.301
6042,29.160
6043,29.119
6044,29.462
6045,29.929
6046,30.401
6047,30.462
6048,30.231
6049,29.686
6050,29.240
6051,29.013
6052,29.003
6053,29.183
6054,29.599
6055,29.878
6056,29.795
6057,29.346
6058,28.981
6059,28.715
6060,28.817
6061,29.058
6062,29.394
6063,29.596
6064,29.417
6065,29.058
6066,29.256
6067,29.304
6068,29.154
6069,28.782
6070,28.538
6071,28.112
6072,28.170
6073,28.205
6074,28.333
6075,28.462
6076,28.343
6077,28.115
6078,28.087
6079,28.099
6080,28.250
6081,28.260
6082,28.545
6083,28.788
6084,28.583
6085,28.474
6086,28.490
6087,28.327
6088,27.772
6089,27.535
6090,27.804
6091,27.788
6092,28.141
6093,28.391
6094,27.878
6095,27.974
6096,28.260
6097,28.218
6098,28.571
6099,28.779
6100,28.744
6101,28.407
6102,28.006
6103,27.949
6104,27.994
6105,27.987
6106,28.574
6107,28.859
6108,28.654
6109,28.413
6110,28.260
6111,28.282
6112,28.824
6113,28.708
6114,28.962
6115,29.071
6116,28.606
6117,28.340
6118,28.484
6119,28.785
6120,28.933
6121,28.798
6122,29.029
6123,29.032
6124,28.936
6125,28.859
6126,29.103
6127,29.163
6128,29.112
6129,28.824
6130,28.744
6131,28.795
6132,28.856
6133,29.042
6134,29.638
6135,30.093
6136,29.808
6137,29.513
6138,29.385
6139,29.218
6140,29.247
6141,29.330
6142,29.285
6143,29.462
6144,29.542
6145,29.433
6146,29.446
6147,29.471
6148,29.554
6149,29.718
6150,30.000
6151,30.051
6152,29.833
6153,29.593
6154,29.692
6155,29.821
6156,30.077
6157,30.199
6158,30.603
6159,30.929
6160,30.413
6161,30.218
6162,30.304
6163,30.388
6164,30.321
6165,30.096
6166,29.997
6167,29.904
6168,30.048
6169,29.929
6170,29.862
6171,29.728
6172,29.526
6173,29.292
6174,29.240
6175,29.240
6176,29.381
6177,29.510
6178,29.987
6179,30.189
6180,29.619
6181,28.965
6182,28.804
6183,28.840
6184,28.962
6185,28.904
6186,29.327
6187,29.385
6188,29.205
6189,29.074
6190,29.218
6191,29.234
6192,29.103
6193,29.003
6194,29.571
6195,29.651
6196,29.205
6197,29.029
6198,29.260
6199,29.385
6200,29.554
6201,29.378
6202,29.446
6203,29.506
6204,29.510
6205,29.494
6206,29.667
6207,29.612
6208,29.782
6209,29.865
6210,30.660
6211,30.821
6212,30.353
6213,29.760
6214,29.263
6215,28.894
6216,28.737
6217,28.801
6218,29.667
6219,30.199
6220,30.337
6221,30.410
6222,30.404
6223,30.404
6224,30.189
6225,29.952
6226,30.119
6227,30.215
6228,30.026
6229,29.933
6230,29.987
6231,29.936
6232,30.045
6233,29.853
6234,30.163
6235,29.901
6236,29.574
6237,29.263
6238,29.163
6239,29.157
6240,29.279
6241,29.247
6242,29.593
6243,29.593
6244,29.311
6245,29.067
6246,29.199
6247,29.074
6248,29.163
6249,28.865
6250,29.231
6251,29.631
6252,29.917
6253,29.946
6254,29.990
6255,29.772
6256,29.519
6257,29.455
6258,29.599
6259,29.452
6260,29.599
6261,29.814
6262,29.619
6263,29.308
6264,29.058
6265,28.712
6266,29.000
6267,29.529
6268,29.526
6269,29.369
6270,29.651
6271,30.064
6272,30.311
6273,30.119
6274,30.295
6275,30.016
6276,30.026
6277,30.228
6278,30.099
6279,30.141
6280,30.244
6281,29.667
6282,29.792
6283,29.869
6284,30.058
6285,30.247
6286,30.029
6287,29.933
6288,29.837
6289,29.599
6290,29.811
6291,30.099
6292,30.272
6293,30.141
6294,29.971
6295,30.115
6296,29.429
6297,29.067
6298,29.240
6299,29.545
6300,29.519
6301,29.147
6302,29.115
6303,29.221
6304,29.061
6305,28.785
6306,29.410
6307,29.359
6308,29.330
6309,29.420
6310,28.849
6311,28.901
6312,28.744
6313,28.814
6314,29.465
6315,29.744
6316,29.487
6317,28.888
6318,28.500
6319,28.638
6320,28.574
6321,28.500
6322,28.292
6323,28.106
6324,28.151
6325,28.244
6326,28.378
6327,28.545
6328,28.522
6329,28.208
6330,28.093
6331,27.811
6332,27.173
6333,26.606
6334,26.731
6335,26.878
6336,27.042
6337,26.692
6338,26.647
6339,26.423
6340,26.061
6341,26.074
6342,26.096
6343,26.292
6344,26.397
6345,25.878
6346,25.801
6347,25.936
6348,25.913
6349,25.798
6350,25.641
6351,25.385
6352,25.407
6353,25.288
6354,25.147
6355,25.231
6356,25.420
6357,25.587
6358,25.676
6359,25.647
6360,25.417
6361,25.465
6362,25.651
6363,25.795
6364,26.067
6365,26.337
6366,26.622
6367,26.821
6368,26.324
6369,25.888
6370,25.676
6371,25.734
6372,25.811
6373,26.061
6374,26.391
6375,26.583
6376,26.548
6377,26.529
6378,26.705
6379,27.051
6380,27.340
6381,27.183
6382,27.058
6383,27.247
6384,27.051
6385,26.837
6386,26.830
6387,26.958
6388,26.753
6389,26.397
6390,26.131
6391,25.920
6392,26.609
6393,26.801
6394,27.115
6395,27.106
6396,26.731
6397,26.481
6398,26.365
6399,26.343
6400,26.080
6401,26.035
6402,26.250
6403,26.292
6404,26.080
6405,25.808
6406,25.635
6407,25.500
6408,25.128
6409,25.237
6410,25.615
6411,25.904
6412,26.038
6413,26.141
6414,26.308
6415,26.298
6416,26.135
6417,26.013
6418,26.106
6419,26.240
6420,26.106
6421,26.000
6422,25.958
6423,25.856
6424,25.776
6425,25.612
6426,25.936
6427,25.885
6428,26.045
6429,26.522
6430,26.721
6431,27.000
6432,26.907
6433,26.878
6434,27.138
6435,27.199
6436,27.231
6437,27.183
6438,26.913
6439,26.984
6440,26.760
6441,26.663
6442,26.619
6443,26.343
6444,26.269
6445,26.170
6446,26.272
6447,26.272
6448,26.337
6449,26.228
6450,26.327
6451,26.381
6452,26.279
6453,26.106
6454,26.426
6455,26.670
6456,26.962
6457,26.683
6458,26.244
6459,25.904
6460,25.696
6461,25.436
6462,25.526
6463,25.718
6464,25.583
6465,25.128
6466,25.260
6467,25.237
6468,25.638
6469,26.006
6470,25.737
6471,25.817
6472,25.606
6473,25.465
6474,25.990
6475,26.484
6476,26.747
6477,26.840
6478,26.734
6479,26.721
6480,26.263
6481,25.894
6482,26.115
6483,26.490
6484,26.474
6485,26.513
6486,26.446
6487,26.298
6488,26.330
6489,26.333
6490,26.365
6491,26.433
6492,26.551
6493,26.615
6494,26.622
6495,26.535
6496,26.583
6497,26.740
6498,26.843
6499,26.744
6500,26.321
6501,26.103
6502,26.090
6503,26.087
6504,26.417
6505,25.987
6506,26.231
6507,26.369
6508,26.106
6509,26.109
6510,26.221
6511,26.263
6512,26.135
6513,26.061
6514,26.484
6515,26.708
6516,26.221
6517,25.696
6518,25.429
6519,25.189
6520,25.397
6521,25.340
6522,25.737
6523,26.192
6524,25.862
6525,25.407
6526,25.298
6527,25.304
6528,25.160
6529,24.933
6530,25.093
6531,25.234
6532,25.337
6533,25.455
6534,25.260
6535,24.869
6536,24.606
6537,24.308
6538,24.760
6539,25.228
6540,25.327
6541,25.481
6542,25.606
6543,25.814
6544,25.484
6545,25.333
6546,25.269
6547,25.147
6548,24.750
6549,24.535
6550,24.609
6551,24.580
6552,25.074
6553,25.109
6554,25.551
6555,25.654
6556,25.218
6557,25.032
6558,25.385
6559,25.731
6560,25.244
6561,25.157
6562,25.212
6563,25.026
6564,24.667
6565,24.417
6566,24.481
6567,24.647
6568,24.907
6569,24.708
6570,24.872
6571,25.061
6572,25.205
6573,25.413
6574,25.449
6575,25.644
6576,24.920
6577,24.388
6578,24.939
6579,25.654
6580,25.840
6581,25.849
6582,25.404
6583,25.096
6584,24.846
6585,24.615
6586,24.808
6587,25.231
6588,25.449
6589,25.208
6590,24.779
6591,24.635
6592,24.955
6593,24.897
6594,25.112
6595,25.304
6596,25.064
6597,24.641
6598,24.446
6599,24.474
6600,24.628
6601,24.551
6602,24.734
6603,24.744
6604,24.295
6605,23.901
6606,23.792
6607,23.638
6608,23.939
6609,24.192
6610,24.205
6611,24.042
6612,23.779
6613,23.731
6614,23.801
6615,23.946
6616,24.071
6617,23.497
6618,24.003
6619,24.003
6620,23.638
6621,23.340
6622,23.058
6623,23.228
6624,22.929
6625,23.019
6626,23.343
6627,23.776
6628,24.071
6629,24.080
6630,23.987
6631,23.766
6632,23.955
6633,23.801
6634,24.301
6635,24.587
6636,24.567
6637,24.609
6638,24.449
6639,24.526
6640,24.327
6641,24.061
6642,24.160
6643,24.343
6644,24.343
6645,24.391
6646,24.513
6647,24.574
6648,24.683
6649,24.337
6650,23.878
6651,23.619
6652,23.481
6653,23.365
6654,23.554
6655,23.824
6656,23.737
6657,23.574
6658,24.112
6659,24.583
6660,24.260
6661,23.971
6662,23.644
6663,23.712
6664,23.330
6665,23.321
6666,23.529
6667,23.769
6668,23.551
6669,23.157
6670,22.952
6671,22.981
6672,23.160
6673,23.064
6674,23.212
6675,23.404
6676,23.465
6677,23.542
6678,23.817
6679,24.038
6680,23.580
6681,23.538
6682,23.606
6683,23.654
6684,23.740
6685,23.788
6686,23.827
6687,23.875
6688,23.913
6689,23.821
6690,23.782
6691,23.772
6692,23.532
6693,23.388
6694,23.603
6695,24.080
6696,24.141
6697,24.103
6698,23.994
6699,23.917
6700,24.087
6701,23.913
6702,23.744
6703,23.763
6704,24.038
6705,24.000
6706,24.093
6707,23.872
6708,23.497
6709,23.314
6710,23.452
6711,23.442
6712,23.644
6713,23.654
6714,24.103
6715,24.026
6716,23.670
6717,23.612
6718,23.718
6719,24.083
6720,23.692
6721,23.481
6722,23.599
6723,23.628
6724,23.606
6725,23.923
6726,24.006
6727,24.256
6728,24.160
6729,23.920
6730,23.936
6731,23.994
6732,23.856
6733,23.885
6734,24.179
6735,24.433
6736,24.093
6737,23.949
6738,24.096
6739,24.250
6740,24.439
6741,24.564
6742,24.253
6743,24.109
6744,24.170
6745,23.958
6746,24.272
6747,24.494
6748,24.135
6749,24.125
6750,24.397
6751,24.330
6752,24.321
6753,23.994
6754,23.958
6755,24.045
6756,23.965
6757,24.263
6758,24.295
6759,24.571
6760,24.359
6761,23.974
6762,23.705
6763,23.801
6764,24.314
6765,24.381
6766,24.282
6767,24.324
6768,24.212
6769,23.740
6770,23.663
6771,23.654
6772,23.599
6773,23.744
6774,24.128
6775,24.234
6776,24.471
6777,24.356
6778,24.327
6779,24.423
6780,24.240
6781,24.038
6782,23.885
6783,23.971
6784,24.003
6785,24.016
6786,24.436
6787,24.715
6788,24.596
6789,24.356
6790,23.958
6791,23.433
6792,23.625
6793,23.558
6794,23.923
6795,24.337
6796,24.413
6797,24.365
6798,24.381
6799,24.478
6800,24.526
6801,24.474
6802,24.811
6803,24.974
6804,24.974
6805,24.744
6806,24.731
6807,25.144
6808,24.837
6809,24.423
6810,24.324
6811,24.170
6812,24.167
6813,24.436
6814,24.333
6815,24.256
6816,24.333
6817,24.093
6818,24.423
6819,24.683
6820,24.462
6821,24.510
6822,24.208
6823,23.997
6824,23.612
6825,23.449
6826,23.673
6827,23.962
6828,24.378
6829,24.340
6830,24.087
6831,23.994
6832,23.881
6833,23.885
6834,24.189
6835,24.410
6836,24.147
6837,23.926
6838,24.090
6839,24.542
6840,24.865
6841,24.375
6842,24.564
6843,24.343
6844,23.785
6845,23.391
6846,23.215
6847,23.369
6848,23.859
6849,23.891
6850,24.308
6851,24.404
6852,24.125
6853,23.894
6854,23.596
6855,23.808
6856,23.635
6857,23.510
6858,23.513
6859,23.744
6860,23.913
6861,23.644
6862,23.372
6863,23.163
6864,23.016
6865,23.292
6866,23.901
6867,24.324
6868,24.276
6869,23.984
6870,23.644
6871,23.260
6872,22.952
6873,22.933
6874,22.958
6875,23.074
6876,23.077
6877,23.010
6878,23.122
6879,23.141
6880,23.179
6881,23.196
6882,23.295
6883,23.304
6884,23.202
6885,23.038
6886,22.939
6887,22.756
6888,22.638
6889,22.628
6890,22.606
6891,22.731
6892,22.747
6893,22.545
6894,22.407
6895,22.365
6896,22.032
6897,21.933
6898,22.244
6899,22.686
6900,22.603
6901,22.420
6902,22.420
6903,22.497
6904,22.663
6905,22.490
6906,22.237
6907,22.035
6908,21.740
6909,21.702
6910,21.952
6911,22.337
6912,22.147
6913,21.792
6914,21.474
6915,21.378
6916,21.574
6917,21.929
6918,22.356
6919,22.577
6920,22.250
6921,21.843
6922,21.538
6923,21.663
6924,21.814
6925,21.968
6926,21.776
6927,21.654
6928,21.510
6929,21.096
6930,21.042
6931,21.369
6932,21.606
6933,21.904
6934,21.862
6935,21.670
6936,21.696
6937,21.590
6938,21.837
6939,22.019
6940,21.865
6941,21.731
6942,21.737
6943,21.756
6944,21.772
6945,21.590
6946,21.686
6947,21.763
6948,21.596
6949,21.202
6950,21.096
6951,21.087
6952,21.272
6953,21.455
6954,21.926
6955,22.282
6956,22.151
6957,22.054
6958,21.901
6959,21.728
6960,21.308
6961,21.404
6962,21.615
6963,21.875
6964,22.163
6965,22.087
6966,21.795
6967,21.478
6968,21.433
6969,21.490
6970,21.683
6971,21.904
6972,22.000
6973,21.942
6974,21.840
6975,21.888
6976,21.529
6977,21.240
6978,21.263
6979,21.522
6980,21.740
6981,21.663
6982,21.769
6983,21.817
6984,21.500
6985,21.250
6986,21.231
6987,21.481
6988,21.378
6989,21.349
6990,21.282
6991,21.032
6992,20.837
6993,20.769
6994,20.840
6995,20.859
6996,20.939
6997,20.824
6998,20.971
6999,21.154
7000,21.253
7001,21.119
7002,21.128
7003,21.090
7004,20.897
7005,20.878
7006,21.147
7007,21.346
7008,21.077
7009,20.782
7010,20.965
7011,20.926
7012,20.468
7013,20.276
7014,20.699
7015,20.766
7016,20.747
7017,20.747
7018,21.003
7019,21.369
7020,21.449
7021,21.554
7022,21.340
7023,21.090
7024,20.609
7025,20.497
7026,20.904
7027,21.090
7028,21.212
7029,21.167
7030,21.045
7031,21.058
7032,20.955
7033,20.542
7034,20.484
7035,20.686
7036,20.676
7037,20.532
7038,20.782
7039,21.119
7040,21.006
7041,20.862
7042,20.667
7043,20.340
7044,20.228
7045,20.218
7046,20.304
7047,20.574
7048,20.667
7049,20.599
7050,20.747
7051,20.679
7052,20.276
7053,19.872
7054,19.859
7055,20.087
7056,20.407
7057,20.179
7058,20.212
7059,20.327
7060,20.170
7061,19.747
7062,19.359
7063,19.218
7064,19.272
7065,19.215
7066,19.702
7067,20.077
7068,20.167
7069,20.071
7070,19.952
7071,19.683
7072,19.179
7073,18.702
7074,18.327
7075,18.317
7076,18.256
7077,18.122
7078,17.952
7079,17.875
7080,17.647
7081,17.051
7082,16.891
7083,17.083
7084,17.221
7085,17.183
7086,17.042
7087,16.933
7088,16.558
7089,15.670
7090,15.359
7091,15.080
7092,15.103
7093,15.189
7094,14.872
7095,14.728
7096,14.330
7097,13.926
7098,13.811
7099,13.821
7100,13.641
7101,13.103
7102,12.888
7103,12.958
7104,12.657
7105,12.724
7106,12.865
7107,12.952
7108,12.548
7109,12.048
7110,12.077
7111,12.125
7112,12.503
7113,12.253
7114,11.907
7115,11.696
7116,11.478
7117,11.554
7118,11.702
7119,11.699
7120,11.465
7121,11.465
7122,11.359
7123,11.330
7124,11.266
7125,10.939
7126,10.782
7127,10.984
7128,10.939
7129,10.910
7130,11.013
7131,10.907
7132,11.170
7133,11.631
7134,11.795
7135,11.859
7136,11.647
7137,11.263
7138,11.090
7139,11.205
7140,10.830
7141,10.676
7142,10.692
7143,10.484
7144,10.628
7145,10.340
7146,10.625
7147,10.833
7148,10.984
7149,10.734
7150,10.837
7151,11.048
7152,11.087
7153,10.881
7154,10.974
7155,11.244
7156,11.106
7157,10.692
7158,10.526
7159,10.631
7160,10.564
7161,10.282
7162,10.529
7163,10.962
7164,11.330
7165,11.388
7166,11.202
7167,11.212
7168,11.029
7169,10.728
7170,10.833
7171,10.929
7172,11.051
7173,11.494
7174,11.381
7175,11.372
7176,11.087
7177,10.856
7178,11.311
7179,11.676
7180,11.788
7181,11.567
7182,11.167
7183,11.109
7184,10.958
7185,11.064
7186,11.324
7187,11.583
7188,11.173
7189,10.654
7190,10.276
7191,10.247
7192,10.458
7193,10.612
7194,10.788
7195,10.817
7196,10.776
7197,10.574
7198,10.330
7199,10.151
7200,10.263
7201,9.894
7202,10.119
7203,9.984
7204,9.785
7205,9.785
7206,9.939
7207,10.487
7208,10.471
7209,10.433
7210,10.529
7211,10.577
7212,10.644
7213,10.625
7214,10.760
7215,10.885
7216,10.821
7217,10.487
7218,10.548
7219,10.769
7220,10.843
7221,10.699
7222,10.285
7223,10.266
7224,10.420
7225,10.631
7226,10.962
7227,11.058
7228,10.894
7229,10.731
7230,10.821
7231,10.994
7232,11.141
7233,10.910
7234,11.071
7235,10.907
7236,10.542
7237,10.330
7238,10.250
7239,10.442
7240,10.298
7241,9.904
7242,10.087
7243,10.125
7244,10.163
7245,10.327
7246,10.391
7247,10.378
7248,10.378
7249,10.122
7250,10.199
7251,10.333
7252,10.295
7253,10.237
7254,10.054
7255,10.125
7256,10.304
7257,10.131
7258,10.247
7259,10.228
7260,9.946
7261,9.763
7262,9.888
7263,10.099
7264,10.285
7265,10.093
7266,10.221
7267,10.202
7268,10.022
7269,9.817
7270,9.779
7271,10.141
7272,10.016
7273,9.628
7274,9.676
7275,9.494
7276,9.728
7277,10.074
7278,10.087
7279,10.250
7280,9.728
7281,9.208
7282,9.292
7283,9.696
7284,10.045
7285,10.487
7286,10.654
7287,10.644
7288,10.167
7289,9.724
7290,9.522
7291,9.599
7292,9.740
7293,9.798
7294,9.949
7295,10.035
