Distance_(pixels),Gray_Value
0,21.594
1,21.494
2,21.456
3,21.272
4,21.161
5,21.336
6,21.358
7,21.367
8,21.519
9,21.778
10,21.869
11,21.744
12,21.661
13,21.628
14,21.683
15,21.533
16,21.511
17,21.669
18,21.747
19,21.456
20,21.436
21,21.744
22,21.928
23,21.836
24,21.742
25,21.775
26,21.731
27,21.656
28,21.811
29,22.069
30,22.244
31,22.272
32,22.386
33,22.356
34,22.139
35,21.861
36,21.969
37,22.228
38,22.225
39,22.200
40,21.833
41,21.725
42,22.078
43,22.253
44,22.542
45,22.975
46,23.094
47,22.625
48,22.492
49,22.569
50,22.739
51,22.536
52,22.317
53,22.433
54,22.414
55,22.342
56,22.492
57,22.675
58,22.919
59,22.644
60,22.358
61,22.525
62,22.553
63,22.097
64,22.117
65,21.797
66,21.772
67,22.092
68,22.569
69,23.519
70,23.814
71,23.231
72,22.939
73,22.889
74,23.036
75,23.303
76,23.619
77,24.056
78,24.275
79,23.986
80,23.581
81,23.367
82,23.328
83,23.414
84,23.589
85,23.986
86,24.178
87,23.686
88,23.831
89,23.756
90,23.686
91,23.458
92,23.447
93,23.589
94,23.656
95,23.783
96,23.797
97,23.619
98,23.672
99,23.772
100,24.047
101,24.217
102,24.117
103,23.814
104,23.761
105,24.169
106,24.344
107,23.872
108,23.489
109,23.472
110,23.619
111,23.517
112,23.542
113,23.658
114,24.006
115,24.208
116,24.592
117,24.958
118,24.961
119,24.808
120,24.992
121,25.758
122,26.361
123,26.056
124,25.731
125,25.786
126,25.575
127,25.369
128,25.339
129,25.283
130,25.472
131,25.728
132,25.981
133,26.428
134,26.167
135,25.889
136,25.856
137,25.792
138,26.169
139,26.356
140,26.556
141,26.792
142,26.875
143,26.536
144,26.672
145,26.175
146,25.975
147,25.800
148,26.183
149,26.844
150,26.858
151,26.464
152,26.583
153,26.697
154,26.992
155,27.117
156,27.289
157,27.514
158,27.397
159,26.994
160,26.628
161,26.742
162,26.775
163,26.653
164,26.792
165,26.936
166,26.953
167,26.681
168,26.542
169,26.294
170,26.436
171,25.781
172,25.458
173,25.719
174,25.764
175,25.675
176,25.589
177,25.556
178,25.239
179,24.947
180,24.883
181,25.142
182,25.506
183,25.531
184,25.675
185,25.772
186,26.086
187,25.675
188,25.561
189,25.800
190,25.778
191,25.592
192,25.722
193,25.994
194,26.133
195,25.633
196,25.478
197,25.814
198,26.033
199,25.458
200,25.433
201,25.333
202,25.375
203,25.408
204,25.336
205,25.272
206,25.153
207,25.006
208,25.094
209,24.992
210,25.086
211,25.061
212,25.194
213,25.664
214,25.892
215,25.481
216,25.408
217,25.381
218,25.461
219,25.544
220,25.761
221,25.875
222,25.778
223,25.619
224,25.239
225,25.278
226,25.425
227,25.367
228,25.589
229,26.372
230,26.822
231,26.547
232,26.583
233,26.872
234,27.089
235,26.931
236,26.947
237,27.217
238,27.264
239,27.264
240,27.181
241,27.261
242,27.286
243,27.133
244,27.233
245,27.483
246,27.414
247,26.975
248,27.339
249,27.964
250,28.489
251,28.447
252,28.419
253,28.236
254,28.006
255,27.939
256,28.008
257,28.564
258,28.686
259,28.400
260,28.225
261,28.275
262,28.186
263,28.064
264,28.222
265,27.836
266,27.842
267,27.747
268,27.594
269,28.028
270,28.233
271,27.542
272,26.925
273,26.450
274,26.742
275,27.444
276,28.467
277,29.106
278,29.003
279,28.392
280,27.772
281,27.792
282,27.789
283,27.753
284,27.964
285,28.197
286,28.081
287,27.600
288,27.503
289,27.583
290,27.697
291,27.481
292,27.447
293,27.681
294,27.689
295,27.697
296,27.869
297,27.925
298,28.153
299,28.067
300,27.981
301,28.186
302,28.064
303,27.556
304,27.653
305,27.525
306,27.658
307,27.742
308,27.833
309,28.169
310,28.119
311,27.603
312,27.519
313,27.611
314,27.508
315,27.328
316,27.469
317,27.617
318,27.678
319,27.578
320,27.906
321,28.367
322,28.619
323,27.711
324,26.889
325,26.617
326,26.267
327,26.447
328,26.900
329,26.886
330,27.061
331,26.450
332,26.292
333,26.394
334,26.517
335,26.953
336,27.353
337,27.086
338,26.786
339,26.192
340,25.950
341,26.719
342,27.233
343,27.114
344,26.789
345,26.622
346,26.469
347,26.353
348,26.533
349,26.856
350,26.867
351,26.314
352,25.922
353,25.728
354,25.772
355,25.958
356,26.411
357,26.942
358,27.056
359,26.650
360,26.608
361,26.794
362,27.031
363,26.908
364,27.033
365,27.286
366,27.250
367,26.808
368,26.650
369,26.836
370,26.883
371,26.692
372,26.544
373,26.569
374,26.544
375,26.686
376,26.925
377,27.117
378,27.358
379,27.225
380,27.208
381,27.336
382,27.414
383,27.153
384,27.097
385,27.081
386,27.106
387,26.961
388,26.739
389,26.922
390,27.156
391,27.006
392,26.942
393,26.775
394,26.697
395,26.686
396,27.058
397,27.086
398,27.150
399,27.117
400,27.122
401,27.397
402,27.908
403,27.739
404,27.503
405,27.617
406,27.636
407,27.231
408,27.169
409,26.975
410,27.439
411,27.600
412,27.722
413,27.972
414,27.675
415,27.225
416,26.889
417,26.711
418,26.719
419,26.903
420,27.339
421,28.297
422,28.819
423,28.364
424,27.997
425,27.694
426,27.408
427,27.167
428,27.197
429,27.603
430,27.867
431,27.853
432,27.686
433,27.900
434,27.897
435,27.686
436,27.914
437,27.911
438,28.000
439,28.011
440,28.531
441,28.817
442,29.181
443,28.736
444,28.383
445,28.572
446,28.689
447,28.689
448,28.886
449,29.253
450,29.650
451,29.481
452,29.453
453,29.753
454,29.950
455,29.656
456,29.606
457,29.475
458,29.761
459,29.547
460,29.547
461,29.989
462,30.111
463,29.781
464,29.739
465,29.497
466,29.519
467,29.303
468,29.189
469,29.594
470,29.953
471,29.639
472,29.256
473,29.333
474,29.461
475,29.069
476,28.561
477,28.100
478,27.864
479,27.267
480,27.147
481,26.864
482,27.275
483,27.406
484,27.931
485,28.603
486,28.875
487,28.889
488,29.167
489,29.681
490,30.119
491,29.908
492,29.722
493,30.189
494,30.442
495,29.983
496,29.928
497,30.214
498,30.369
499,30.331
500,30.314
501,30.767
502,31.286
503,31.681
504,32.033
505,32.483
506,32.903
507,32.753
508,32.736
509,32.900
510,32.867
511,32.625
512,32.628
513,32.753
514,32.689
515,32.642
516,32.767
517,32.450
518,32.358
519,32.708
520,32.828
521,33.297
522,33.869
523,33.936
524,33.989
525,34.425
526,34.761
527,34.322
528,34.456
529,34.603
530,34.656
531,34.217
532,33.808
533,34.031
534,34.056
535,33.594
536,33.692
537,33.711
538,34.225
539,34.386
540,34.883
541,35.469
542,35.772
543,35.431
544,35.444
545,35.919
546,36.194
547,35.403
548,34.644
549,34.361
550,34.267
551,33.717
552,33.692
553,33.547
554,33.494
555,33.481
556,33.689
557,33.728
558,33.836
559,34.031
560,34.228
561,34.189
562,34.414
563,33.814
564,33.161
565,33.186
566,33.464
567,32.942
568,33.422
569,33.781
570,34.100
571,33.317
572,32.903
573,32.944
574,32.781
575,32.811
576,33.000
577,33.022
578,33.028
579,32.625
580,32.608
581,33.194
582,33.469
583,33.036
584,32.667
585,32.528
586,32.558
587,31.850
588,31.383
589,31.183
590,31.156
591,30.683
592,30.464
593,30.525
594,30.475
595,30.369
596,30.600
597,31.039
598,31.044
599,30.622
600,30.336
601,30.094
602,30.156
603,29.975
604,29.825
605,30.039
606,30.197
607,29.686
608,29.706
609,29.525
610,29.625
611,29.000
612,28.725
613,28.986
614,29.100
615,29.025
616,29.322
617,29.450
618,29.578
619,28.956
620,28.836
621,28.906
622,28.911
623,28.678
624,28.739
625,28.469
626,28.244
627,27.669
628,27.467
629,27.694
630,27.778
631,27.644
632,28.014
633,28.119
634,28.511
635,28.444
636,28.386
637,28.458
638,28.211
639,27.875
640,27.483
641,27.528
642,27.453
643,27.364
644,27.597
645,27.492
646,27.406
647,27.264
648,27.450
649,27.769
650,28.006
651,28.128
652,28.494
653,28.817
654,28.864
655,28.519
656,28.058
657,27.975
658,27.942
659,27.658
660,27.583
661,27.533
662,27.333
663,27.369
664,27.722
665,27.514
666,27.542
667,27.175
668,27.481
669,28.247
670,28.328
671,28.028
672,27.672
673,27.450
674,27.272
675,27.028
676,26.906
677,27.042
678,26.964
679,26.431
680,26.392
681,26.353
682,26.592
683,26.486
684,26.344
685,26.642
686,26.758
687,26.231
688,26.106
689,26.053
690,26.108
691,25.967
692,25.869
693,25.900
694,25.919
695,25.508
696,25.708
697,25.633
698,25.958
699,26.119
700,26.108
701,26.197
702,26.289
703,26.008
704,25.861
705,25.714
706,25.650
707,25.347
708,25.283
709,25.306
710,25.211
711,24.656
712,24.719
713,24.936
714,25.158
715,25.586
716,25.853
717,25.903
718,25.753
719,25.225
720,24.992
721,24.758
722,24.697
723,24.594
724,24.844
725,25.258
726,25.486
727,25.228
728,25.172
729,24.558
730,24.128
731,24.242
732,24.692
733,25.183
734,25.625
735,25.339
736,24.894
737,24.614
738,24.264
739,24.217
740,24.494
741,24.553
742,24.622
743,24.558
744,24.811
745,25.075
746,25.042
747,24.661
748,24.536
749,24.450
750,24.422
751,24.328
752,24.625
753,24.808
754,24.928
755,24.633
756,24.347
757,24.683
758,24.886
759,25.019
760,25.053
761,25.250
762,25.811
763,26.017
764,26.106
765,26.533
766,26.556
767,26.200
768,25.917
769,25.839
770,25.733
771,25.814
772,26.089
773,26.514
774,26.794
775,26.656
776,27.028
777,27.250
778,28.050
779,28.436
780,28.886
781,29.539
782,29.664
783,29.411
784,29.372
785,29.503
786,29.681
787,29.492
788,29.400
789,29.133
790,29.242
791,29.461
792,29.975
793,30.256
794,31.100
795,31.878
796,32.822
797,33.258
798,33.519
799,33.975
800,34.464
801,34.947
802,35.747
803,36.028
804,36.314
805,36.722
806,36.744
807,36.533
808,36.447
809,36.175
810,36.275
811,35.911
812,35.892
813,36.661
814,37.333
815,37.683
816,38.172
817,38.533
818,39.119
819,38.719
820,38.506
821,39.108
822,39.533
823,39.419
824,39.656
825,39.422
826,39.367
827,39.553
828,39.906
829,40.219
830,40.364
831,40.253
832,40.583
833,40.958
834,41.511
835,41.464
836,41.339
837,41.753
838,41.875
839,41.300
840,40.872
841,40.561
842,40.817
843,40.858
844,41.175
845,41.611
846,41.692
847,41.519
848,41.653
849,41.761
850,42.031
851,42.008
852,41.939
853,42.178
854,42.658
855,42.617
856,42.897
857,43.189
858,43.842
859,44.161
860,44.469
861,44.681
862,44.661
863,44.297
864,44.381
865,44.350
866,44.539
867,44.089
868,43.733
869,43.769
870,43.519
871,43.117
872,42.897
873,42.617
874,42.447
875,42.439
876,42.472
877,42.294
878,42.125
879,41.939
880,42.108
881,42.369
882,42.858
883,42.556
884,42.444
885,43.356
886,43.931
887,43.478
888,43.272
889,42.306
890,41.578
891,41.461
892,41.692
893,41.756
894,42.044
895,42.067
896,41.942
897,42.028
898,42.153
899,42.075
900,42.169
901,42.456
902,42.797
903,42.819
904,43.297
905,43.675
906,44.000
907,43.872
908,43.564
909,43.133
910,42.656
911,42.144
912,41.897
913,41.578
914,41.578
915,41.697
916,42.000
917,42.622
918,43.189
919,43.361
920,43.428
921,43.347
922,43.842
923,44.058
924,44.367
925,45.194
926,45.786
927,45.261
928,44.650
929,44.103
930,43.869
931,43.933
932,43.950
933,43.833
934,43.944
935,44.022
936,44.531
937,44.797
938,45.131
939,44.764
940,44.400
941,44.514
942,44.692
943,44.178
944,44.167
945,44.133
946,44.542
947,44.253
948,44.072
949,44.169
950,44.147
951,43.858
952,43.875
953,43.836
954,44.011
955,43.839
956,43.808
957,43.989
958,44.108
959,43.919
960,43.722
961,43.778
962,43.853
963,43.517
964,43.222
965,42.981
966,42.669
967,42.114
968,42.042
969,41.700
970,41.708
971,41.281
972,41.072
973,41.072
974,41.092
975,40.822
976,41.133
977,41.061
978,41.419
979,41.367
980,41.108
981,41.267
982,41.483
983,41.044
984,40.617
985,39.981
986,39.728
987,39.156
988,39.125
989,39.214
990,38.997
991,38.903
992,38.753
993,38.800
994,38.864
995,38.742
996,38.772
997,38.758
998,38.742
999,38.233
1000,37.908
1001,37.933
1002,38.350
1003,37.928
1004,37.678
1005,37.650
1006,37.500
1007,36.767
1008,36.247
1009,36.003
1010,36.061
1011,35.500
1012,35.047
1013,34.911
1014,34.850
1015,34.500
1016,34.525
1017,34.125
1018,34.131
1019,33.864
1020,34.061
1021,34.558
1022,34.911
1023,34.311
1024,33.867
1025,33.194
1026,32.856
1027,32.019
1028,31.711
1029,31.764
1030,31.558
1031,31.244
1032,30.583
1033,30.608
1034,30.689
1035,30.442
1036,30.144
1037,30.003
1038,29.994
1039,29.519
1040,29.881
1041,30.428
1042,30.533
1043,30.219
1044,29.658
1045,29.097
1046,29.125
1047,29.436
1048,30.172
1049,30.769
1050,30.983
1051,31.053
1052,31.703
1053,32.561
1054,32.986
1055,32.933
1056,32.650
1057,32.889
1058,33.039
1059,32.850
1060,32.903
1061,33.211
1062,33.564
1063,33.778
1064,34.122
1065,34.653
1066,35.158
1067,34.731
1068,34.506
1069,34.408
1070,34.186
1071,34.281
1072,34.561
1073,35.036
1074,35.203
1075,35.111
1076,35.183
1077,35.275
1078,35.269
1079,35.217
1080,35.081
1081,35.139
1082,35.469
1083,35.581
1084,35.700
1085,36.019
1086,36.053
1087,35.558
1088,34.969
1089,34.497
1090,34.556
1091,34.969
1092,35.631
1093,36.203
1094,36.611
1095,36.814
1096,37.094
1097,37.103
1098,37.050
1099,36.361
1100,35.794
1101,35.411
1102,35.297
1103,35.408
1104,35.689
1105,35.828
1106,36.081
1107,35.719
1108,35.283
1109,35.333
1110,35.383
1111,35.458
1112,36.306
1113,37.058
1114,37.961
1115,38.192
1116,38.528
1117,38.831
1118,39.044
1119,39.553
1120,40.039
1121,40.739
1122,41.619
1123,42.072
1124,42.347
1125,42.786
1126,43.025
1127,42.711
1128,42.792
1129,42.636
1130,42.842
1131,43.178
1132,43.708
1133,44.625
1134,45.233
1135,45.392
1136,45.400
1137,45.106
1138,45.042
1139,45.042
1140,45.125
1141,45.597
1142,45.600
1143,45.153
1144,44.667
1145,44.664
1146,44.964
1147,45.372
1148,46.264
1149,47.022
1150,47.497
1151,47.322
1152,47.608
1153,47.756
1154,48.119
1155,47.836
1156,47.611
1157,47.519
1158,47.536
1159,47.425
1160,47.372
1161,47.164
1162,46.994
1163,46.758
1164,46.872
1165,47.128
1166,47.283
1167,47.300
1168,47.800
1169,47.831
1170,48.192
1171,48.214
1172,48.194
1173,48.331
1174,48.572
1175,48.286
1176,48.417
1177,48.556
1178,49.017
1179,48.981
1180,48.686
1181,48.392
1182,48.342
1183,48.072
1184,47.972
1185,47.847
1186,48.058
1187,48.047
1188,48.578
1189,49.517
1190,49.794
1191,49.369
1192,48.936
1193,48.994
1194,49.256
1195,49.453
1196,49.636
1197,49.564
1198,49.558
1199,49.794
1200,50.325
1201,50.478
1202,50.642
1203,50.869
1204,51.181
1205,51.622
1206,52.053
1207,51.633
1208,51.161
1209,50.675
1210,50.358
1211,49.969
1212,49.947
1213,49.647
1214,49.364
1215,49.328
1216,49.964
1217,50.619
1218,51.547
1219,51.644
1220,51.689
1221,52.064
1222,52.314
1223,51.881
1224,51.669
1225,51.431
1226,51.644
1227,51.214
1228,51.028
1229,51.050
1230,50.789
1231,50.553
1232,50.758
1233,50.578
1234,50.411
1235,50.036
1236,50.217
1237,50.372
1238,50.614
1239,50.528
1240,50.597
1241,50.469
1242,50.242
1243,50.247
1244,50.503
1245,50.983
1246,51.256
1247,50.775
1248,50.742
1249,50.825
1250,51.142
1251,50.142
1252,49.144
1253,48.953
1254,48.903
1255,49.258
1256,50.078
1257,49.967
1258,50.386
1259,50.908
1260,51.583
1261,52.306
1262,52.711
1263,52.594
1264,52.433
1265,52.600
1266,52.800
1267,52.578
1268,52.119
1269,52.400
1270,52.969
1271,52.711
1272,53.114
1273,52.783
1274,52.578
1275,52.389
1276,52.444
1277,51.997
1278,51.294
1279,51.244
1280,51.264
1281,51.333
1282,51.419
1283,51.667
1284,52.247
1285,52.778
1286,53.025
1287,52.289
1288,51.700
1289,51.431
1290,51.344
1291,50.594
1292,49.819
1293,49.675
1294,49.547
1295,49.206
1296,48.953
1297,48.478
1298,48.297
1299,47.761
1300,47.614
1301,48.281
1302,48.942
1303,48.900
1304,48.319
1305,47.456
1306,46.650
1307,46.094
1308,46.117
1309,46.381
1310,46.992
1311,47.339
1312,47.628
1313,47.636
1314,48.214
1315,48.103
1316,47.936
1317,47.961
1318,47.508
1319,46.878
1320,46.450
1321,46.156
1322,46.047
1323,45.581
1324,45.394
1325,45.258
1326,45.283
1327,45.447
1328,46.272
1329,46.111
1330,46.344
1331,46.339
1332,46.372
1333,46.822
1334,47.169
1335,46.839
1336,46.647
1337,46.400
1338,46.481
1339,46.453
1340,46.597
1341,46.953
1342,47.383
1343,47.128
1344,46.892
1345,46.453
1346,46.047
1347,45.589
1348,45.389
1349,45.117
1350,44.858
1351,44.453
1352,44.156
1353,43.769
1354,44.011
1355,43.661
1356,43.431
1357,42.958
1358,42.206
1359,41.447
1360,41.125
1361,41.108
1362,41.242
1363,41.044
1364,40.892
1365,40.386
1366,39.786
1367,39.503
1368,39.367
1369,38.981
1370,38.669
1371,38.128
1372,38.028
1373,37.975
1374,38.017
1375,37.994
1376,37.961
1377,37.822
1378,37.622
1379,37.142
1380,36.786
1381,36.672
1382,36.617
1383,36.519
1384,36.936
1385,37.150
1386,37.397
1387,37.167
1388,37.114
1389,37.128
1390,36.914
1391,36.747
1392,36.897
1393,36.853
1394,36.950
1395,37.269
1396,37.564
1397,37.650
1398,37.367
1399,37.072
1400,36.803
1401,36.764
1402,37.192
1403,37.303
1404,37.458
1405,38.175
1406,38.739
1407,38.503
1408,38.383
1409,38.236
1410,38.500
1411,38.353
1412,38.075
1413,38.383
1414,38.572
1415,38.100
1416,37.525
1417,37.425
1418,37.347
1419,37.450
1420,37.806
1421,37.914
1422,38.022
1423,37.975
1424,38.461
1425,38.358
1426,38.589
1427,38.497
1428,38.283
1429,38.194
1430,38.314
1431,38.467
1432,38.450
1433,38.411
1434,38.700
1435,38.867
1436,39.014
1437,38.986
1438,38.861
1439,38.600
1440,38.561
1441,38.419
1442,38.575
1443,38.828
1444,39.617
1445,40.208
1446,40.300
1447,40.339
1448,40.261
1449,40.325
1450,40.681
1451,41.072
1452,41.581
1453,42.458
1454,43.031
1455,42.892
1456,43.056
1457,42.919
1458,43.319
1459,43.536
1460,43.786
1461,44.386
1462,44.783
1463,44.883
1464,45.486
1465,45.461
1466,45.892
1467,46.300
1468,47.108
1469,48.136
1470,48.869
1471,49.297
1472,50.000
1473,50.511
1474,51.167
1475,51.008
1476,50.894
1477,51.333
1478,51.669
1479,51.422
1480,51.592
1481,51.983
1482,52.561
1483,52.347
1484,52.467
1485,52.256
1486,51.906
1487,52.036
1488,53.067
1489,53.522
1490,54.281
1491,54.544
1492,54.681
1493,54.728
1494,54.372
1495,53.772
1496,53.194
1497,53.189
1498,53.714
1499,53.517
1500,53.594
1501,54.517
1502,55.378
1503,55.811
1504,55.883
1505,55.903
1506,56.081
1507,55.458
1508,55.314
1509,55.033
1510,54.575
1511,54.806
1512,56.375
1513,57.483
1514,58.775
1515,59.150
1516,58.897
1517,58.758
1518,58.544
1519,57.825
1520,57.431
1521,57.411
1522,57.842
1523,57.844
1524,58.108
1525,58.347
1526,58.353
1527,58.472
1528,59.600
1529,60.672
1530,61.842
1531,61.919
1532,61.642
1533,61.136
1534,60.214
1535,59.367
1536,58.475
1537,58.819
1538,59.067
1539,59.514
1540,59.961
1541,60.122
1542,60.394
1543,60.406
1544,60.775
1545,61.319
1546,62.153
1547,61.558
1548,61.075
1549,60.631
1550,60.089
1551,60.139
1552,60.386
1553,60.794
1554,61.306
1555,61.186
1556,61.008
1557,61.369
1558,61.908
1559,61.919
1560,62.692
1561,63.739
1562,65.167
1563,64.603
1564,63.414
1565,62.708
1566,62.089
1567,61.425
1568,61.261
1569,60.075
1570,59.561
1571,59.822
1572,60.419
1573,60.547
1574,60.031
1575,59.681
1576,59.364
1577,59.406
1578,60.050
1579,60.503
1580,60.708
1581,60.589
1582,60.189
1583,59.283
1584,58.672
1585,58.567
1586,59.197
1587,58.978
1588,58.583
1589,58.419
1590,58.086
1591,57.983
1592,58.375
1593,58.256
1594,58.933
1595,58.594
1596,58.394
1597,59.236
1598,59.883
1599,60.236
1600,60.492
1601,60.281
1602,60.175
1603,60.517
1604,61.364
1605,62.008
1606,62.633
1607,63.069
1608,63.728
1609,63.914
1610,64.039
1611,63.803
1612,63.494
1613,63.064
1614,62.914
1615,63.242
1616,63.642
1617,63.400
1618,63.100
1619,62.172
1620,61.197
1621,60.850
1622,60.683
1623,61.036
1624,61.256
1625,60.161
1626,59.536
1627,59.375
1628,59.886
1629,60.903
1630,61.658
1631,61.772
1632,61.742
1633,61.775
1634,61.986
1635,61.853
1636,61.694
1637,61.442
1638,60.914
1639,61.019
1640,61.139
1641,60.739
1642,60.586
1643,60.208
1644,60.094
1645,60.353
1646,60.303
1647,59.064
1648,58.156
1649,56.967
1650,56.589
1651,57.247
1652,58.242
1653,59.419
1654,60.611
1655,60.706
1656,60.458
1657,59.433
1658,58.928
1659,59.092
1660,59.792
1661,60.258
1662,60.150
1663,59.869
1664,59.492
1665,59.294
1666,59.367
1667,58.922
1668,58.531
1669,58.297
1670,58.244
1671,58.261
1672,58.853
1673,59.128
1674,59.531
1675,58.992
1676,58.589
1677,58.433
1678,58.014
1679,57.750
1680,57.825
1681,57.767
1682,58.333
1683,58.172
1684,58.119
1685,58.478
1686,58.422
1687,58.069
1688,57.919
1689,57.219
1690,56.856
1691,56.458
1692,56.111
1693,56.025
1694,55.967
1695,55.425
1696,55.067
1697,55.506
1698,56.167
1699,56.183
1700,55.967
1701,55.842
1702,55.514
1703,55.025
1704,54.831
1705,54.069
1706,53.561
1707,53.400
1708,53.392
1709,53.219
1710,53.072
1711,52.661
1712,52.867
1713,53.044
1714,53.283
1715,52.894
1716,52.300
1717,52.167
1718,52.189
1719,51.450
1720,51.286
1721,51.283
1722,51.586
1723,51.417
1724,50.869
1725,50.344
1726,49.631
1727,48.592
1728,47.947
1729,46.856
1730,46.283
1731,45.553
1732,45.269
1733,45.006
1734,44.447
1735,43.767
1736,43.367
1737,42.442
1738,41.939
1739,41.406
1740,40.864
1741,39.883
1742,39.192
1743,38.872
1744,39.108
1745,38.783
1746,38.744
1747,38.139
1748,37.942
1749,37.817
1750,37.564
1751,37.406
1752,37.567
1753,37.533
1754,37.761
1755,37.475
1756,37.453
1757,37.214
1758,36.797
1759,36.728
1760,36.628
1761,36.992
1762,37.442
1763,36.956
1764,36.542
1765,36.433
1766,35.953
1767,35.458
1768,35.342
1769,35.200
1770,35.722
1771,36.239
1772,37.064
1773,37.564
1774,37.786
1775,37.806
1776,38.075
1777,38.500
1778,38.925
1779,39.183
1780,39.392
1781,40.150
1782,40.703
1783,40.206
1784,39.881
1785,39.544
1786,39.797
1787,39.539
1788,39.406
1789,39.133
1790,39.042
1791,39.892
1792,41.242
1793,42.672
1794,43.792
1795,43.292
1796,41.978
1797,41.292
1798,40.919
1799,41.097
1800,41.411
1801,41.861
1802,42.650
1803,42.378
1804,41.672
1805,42.297
1806,42.994
1807,42.994
1808,43.453
1809,43.675
1810,43.950
1811,43.672
1812,43.556
1813,44.403
1814,45.625
1815,46.097
1816,46.578
1817,47.592
1818,48.817
1819,48.778
1820,48.433
1821,48.636
1822,49.178
1823,49.256
1824,49.900
1825,51.258
1826,53.308
1827,54.225
1828,55.003
1829,55.619
1830,56.231
1831,56.481
1832,56.636
1833,56.744
1834,57.372
1835,58.036
1836,58.933
1837,59.842
1838,60.389
1839,60.578
1840,60.706
1841,60.939
1842,61.500
1843,61.700
1844,62.283
1845,63.272
1846,63.828
1847,63.669
1848,63.122
1849,62.944
1850,63.219
1851,63.378
1852,63.336
1853,63.381
1854,63.300
1855,62.653
1856,61.744
1857,60.678
1858,60.347
1859,59.806
1860,59.383
1861,59.675
1862,60.139
1863,60.633
1864,61.647
1865,62.492
1866,64.075
1867,64.372
1868,64.214
1869,64.269
1870,64.411
1871,64.619
1872,65.008
1873,65.394
1874,66.603
1875,67.036
1876,67.464
1877,68.217
1878,68.531
1879,68.447
1880,68.731
1881,69.344
1882,70.631
1883,70.650
1884,70.553
1885,70.397
1886,70.475
1887,70.931
1888,71.606
1889,72.019
1890,72.731
1891,73.081
1892,73.386
1893,74.011
1894,74.797
1895,75.394
1896,76.178
1897,75.931
1898,75.739
1899,75.133
1900,74.700
1901,75.083
1902,75.739
1903,76.872
1904,77.967
1905,78.511
1906,78.542
1907,77.453
1908,76.200
1909,75.328
1910,75.094
1911,76.072
1912,78.139
1913,79.819
1914,81.131
1915,81.444
1916,81.247
1917,80.767
1918,80.203
1919,79.703
1920,79.619
1921,79.242
1922,79.733
1923,80.178
1924,80.739
1925,81.650
1926,82.189
1927,82.756
1928,83.528
1929,83.947
1930,84.156
1931,82.786
1932,81.147
1933,80.019
1934,79.372
1935,79.064
1936,79.339
1937,80.208
1938,81.219
1939,81.328
1940,80.925
1941,80.269
1942,78.842
1943,77.114
1944,76.161
1945,76.733
1946,78.775
1947,79.656
1948,80.408
1949,80.636
1950,79.936
1951,79.536
1952,79.319
1953,79.417
1954,79.594
1955,78.461
1956,76.881
1957,77.342
1958,78.208
1959,78.883
1960,79.744
1961,80.294
1962,80.914
1963,80.347
1964,79.147
1965,78.003
1966,77.183
1967,76.989
1968,77.364
1969,77.989
1970,78.692
1971,78.919
1972,78.592
1973,79.989
1974,81.700
1975,81.411
1976,80.944
1977,80.031
1978,79.392
1979,79.239
1980,79.442
1981,79.886
1982,79.933
1983,79.925
1984,79.669
1985,79.128
1986,78.856
1987,78.500
1988,78.583
1989,78.761
1990,79.003
1991,79.292
1992,79.961
1993,79.658
1994,79.267
1995,78.494
1996,77.956
1997,78.275
1998,78.939
1999,78.758
2000,78.881
2001,79.164
2002,79.614
2003,79.925
2004,79.881
2005,79.569
2006,78.733
2007,78.536
2008,78.564
2009,77.256
2010,75.761
2011,75.314
2012,75.072
2013,74.417
2014,74.281
2015,74.103
2016,74.167
2017,74.569
2018,74.964
2019,74.867
2020,74.939
2021,74.603
2022,73.981
2023,73.897
2024,74.500
2025,74.917
2026,76.042
2027,75.467
2028,74.608
2029,74.447
2030,73.783
2031,73.581
2032,73.564
2033,73.978
2034,74.783
2035,74.611
2036,73.617
2037,73.133
2038,72.828
2039,72.433
2040,72.586
2041,72.253
2042,72.414
2043,72.275
2044,72.178
2045,72.783
2046,72.919
2047,72.683
2048,72.561
2049,71.894
2050,71.544
2051,70.325
2052,69.606
2053,70.019
2054,70.272
2055,70.708
2056,71.439
2057,71.325
2058,70.825
2059,69.767
2060,68.894
2061,68.497
2062,67.875
2063,66.850
2064,65.639
2065,64.725
2066,63.836
2067,62.861
2068,62.158
2069,61.619
2070,61.447
2071,61.867
2072,62.803
2073,63.294
2074,63.800
2075,62.203
2076,60.175
2077,58.575
2078,57.075
2079,56.411
2080,56.706
2081,56.169
2082,56.542
2083,55.864
2084,55.511
2085,55.600
2086,55.244
2087,54.017
2088,52.781
2089,51.297
2090,50.814
2091,50.922
2092,51.458
2093,51.858
2094,51.686
2095,51.492
2096,51.169
2097,51.014
2098,51.122
2099,50.775
2100,50.308
2101,49.594
2102,48.814
2103,48.158
2104,47.869
2105,47.292
2106,47.244
2107,46.753
2108,46.217
2109,45.972
2110,45.600
2111,45.281
2112,45.289
2113,45.139
2114,44.933
2115,44.378
2116,43.467
2117,42.678
2118,42.211
2119,41.953
2120,42.281
2121,42.722
2122,43.094
2123,42.558
2124,41.581
2125,40.844
2126,40.594
2127,40.314
2128,40.378
2129,40.414
2130,40.814
2131,40.792
2132,41.350
2133,42.017
2134,42.483
2135,43.564
2136,44.444
2137,45.839
2138,47.714
2139,49.075
2140,50.389
2141,51.392
2142,51.758
2143,52.000
2144,52.714
2145,53.250
2146,54.783
2147,56.286
2148,57.908
2149,60.158
2150,62.244
2151,63.797
2152,65.022
2153,65.725
2154,66.417
2155,66.281
2156,66.647
2157,68.000
2158,69.222
2159,69.789
2160,70.381
2161,70.272
2162,70.700
2163,70.272
2164,70.139
2165,70.736
2166,71.244
2167,71.286
2168,71.264
2169,70.803
2170,70.997
2171,71.317
2172,72.086
2173,73.489
2174,75.058
2175,75.175
2176,75.453
2177,76.242
2178,77.311
2179,77.744
2180,78.097
2181,78.406
2182,78.119
2183,77.392
2184,76.633
2185,77.328
2186,78.714
2187,78.869
2188,78.508
2189,78.278
2190,78.086
2191,76.861
2192,75.975
2193,75.356
2194,75.817
2195,77.000
2196,79.353
2197,81.042
2198,81.756
2199,81.228
2200,80.369
2201,80.425
2202,81.122
2203,81.583
2204,82.303
2205,83.572
2206,84.078
2207,83.731
2208,83.344
2209,83.597
2210,84.061
2211,84.108
2212,84.447
2213,85.247
2214,85.808
2215,86.044
2216,86.117
2217,86.086
2218,86.822
2219,87.583
2220,88.442
2221,89.533
2222,90.392
2223,90.742
2224,90.561
2225,90.833
2226,91.347
2227,91.653
2228,91.625
2229,90.844
2230,89.347
2231,89.117
2232,89.997
2233,89.817
2234,89.575
2235,88.736
2236,88.400
2237,89.033
2238,90.094
2239,90.483
2240,90.253
2241,89.442
2242,88.906
2243,89.394
2244,90.647
2245,92.811
2246,95.219
2247,95.986
2248,95.519
2249,94.897
2250,94.333
2251,93.047
2252,92.186
2253,92.797
2254,93.978
2255,94.519
2256,94.886
2257,93.389
2258,91.911
2259,92.525
2260,94.233
2261,95.847
2262,96.817
2263,96.392
2264,95.192
2265,93.603
2266,92.769
2267,91.461
2268,91.069
2269,93.219
2270,95.508
2271,98.086
2272,99.908
2273,100.117
2274,99.369
2275,98.425
2276,97.914
2277,98.142
2278,98.017
2279,97.469
2280,96.411
2281,96.136
2282,96.339
2283,95.797
2284,95.619
2285,96.861
2286,98.403
2287,99.322
2288,99.958
2289,100.975
2290,102.433
2291,102.078
2292,100.933
2293,100.489
2294,99.739
2295,98.422
2296,97.617
2297,98.653
2298,100.819
2299,101.783
2300,102.019
2301,103.222
2302,104.169
2303,103.869
2304,103.269
2305,103.278
2306,103.939
2307,103.706
2308,103.111
2309,102.236
2310,100.869
2311,99.353
2312,98.319
2313,98.853
2314,100.372
2315,100.894
2316,101.553
2317,102.986
2318,104.058
2319,104.822
2320,105.417
2321,104.819
2322,104.050
2323,101.739
2324,99.519
2325,99.175
2326,100.050
2327,100.114
2328,100.308
2329,99.300
2330,98.975
2331,98.786
2332,98.794
2333,99.072
2334,98.747
2335,97.739
2336,96.761
2337,95.714
2338,96.314
2339,96.614
2340,97.608
2341,100.025
2342,102.303
2343,103.650
2344,104.386
2345,104.442
2346,104.089
2347,101.894
2348,99.367
2349,97.914
2350,96.903
2351,95.975
2352,95.800
2353,95.478
2354,95.839
2355,96.736
2356,97.639
2357,98.839
2358,99.542
2359,99.044
2360,97.967
2361,98.231
2362,98.708
2363,97.978
2364,96.767
2365,95.322
2366,94.014
2367,93.133
2368,92.333
2369,92.203
2370,92.936
2371,92.700
2372,92.569
2373,92.772
2374,92.783
2375,92.344
2376,92.442
2377,92.411
2378,93.247
2379,91.894
2380,90.386
2381,89.133
2382,88.356
2383,89.542
2384,91.189
2385,92.278
2386,92.769
2387,90.883
2388,88.539
2389,87.381
2390,87.050
2391,86.992
2392,87.467
2393,86.878
2394,85.667
2395,84.311
2396,83.883
2397,82.931
2398,82.481
2399,82.078
2400,81.983
2401,81.094
2402,80.731
2403,80.372
2404,81.006
2405,83.275
2406,86.061
2407,88.617
2408,90.300
2409,90.642
2410,90.444
2411,89.969
2412,89.569
2413,89.272
2414,89.903
2415,89.717
2416,89.578
2417,89.194
2418,89.658
2419,89.317
2420,89.056
2421,88.978
2422,89.367
2423,89.969
2424,91.078
2425,89.972
2426,88.647
2427,87.842
2428,87.869
2429,87.714
2430,87.419
2431,87.422
2432,87.519
2433,87.092
2434,87.097
2435,85.106
2436,82.600
2437,81.708
2438,81.694
2439,81.808
2440,82.192
2441,81.906
2442,81.767
2443,81.417
2444,81.244
2445,81.594
2446,82.219
2447,81.900
2448,81.286
2449,81.025
2450,81.703
2451,81.425
2452,81.364
2453,80.847
2454,79.819
2455,80.158
2456,81.033
2457,81.172
2458,81.275
2459,80.717
2460,80.222
2461,79.628
2462,79.128
2463,78.722
2464,79.153
2465,79.581
2466,80.314
2467,80.625
2468,81.081
2469,80.992
2470,80.617
2471,80.469
2472,80.894
2473,81.347
2474,82.017
2475,82.375
2476,82.883
2477,84.017
2478,85.378
2479,85.708
2480,84.961
2481,84.214
2482,83.811
2483,83.250
2484,83.011
2485,83.494
2486,84.842
2487,85.942
2488,87.950
2489,89.503
2490,91.689
2491,91.611
2492,90.914
2493,90.439
2494,90.267
2495,90.644
2496,91.153
2497,93.583
2498,96.436
2499,97.664
2500,98.075
2501,97.200
2502,95.525
2503,95.108
2504,96.206
2505,96.689
2506,98.067
2507,99.056
2508,100.439
2509,101.236
2510,101.719
2511,102.375
2512,103.247
2513,104.128
2514,105.361
2515,105.308
2516,104.403
2517,104.850
2518,105.500
2519,107.250
2520,109.136
2521,110.467
2522,111.467
2523,111.378
2524,110.669
2525,110.594
2526,111.042
2527,111.425
2528,111.744
2529,112.033
2530,112.386
2531,112.164
2532,111.833
2533,112.750
2534,114.156
2535,115.306
2536,116.000
2537,117.764
2538,120.389
2539,120.958
2540,121.119
2541,121.389
2542,121.358
2543,122.108
2544,122.808
2545,122.553
2546,122.631
2547,122.219
2548,122.656
2549,122.983
2550,123.247
2551,124.650
2552,126.097
2553,127.236
2554,128.242
2555,128.436
2556,128.619
2557,128.867
2558,129.481
2559,129.717
2560,130.564
2561,131.286
2562,131.975
2563,132.733
2564,133.003
2565,134.825
2566,136.739
2567,136.931
2568,136.614
2569,136.228
2570,136.719
2571,136.656
2572,136.831
2573,139.392
2574,142.347
2575,142.494
2576,141.775
2577,141.244
2578,141.569
2579,141.908
2580,142.475
2581,141.444
2582,139.797
2583,140.075
2584,141.458
2585,143.550
2586,146.311
2587,147.072
2588,146.997
2589,146.294
2590,145.406
2591,146.167
2592,147.356
2593,148.511
2594,149.894
2595,150.686
2596,150.508
2597,150.764
2598,150.900
2599,149.525
2600,147.575
2601,147.647
2602,149.392
2603,150.547
2604,151.431
2605,153.067
2606,153.572
2607,152.569
2608,150.675
2609,150.125
2610,151.214
2611,151.994
2612,153.081
2613,154.756
2614,155.989
2615,156.678
2616,156.814
2617,156.994
2618,157.475
2619,156.933
2620,156.497
2621,156.369
2622,156.381
2623,156.431
2624,156.661
2625,156.992
2626,157.822
2627,158.394
2628,159.028
2629,159.625
2630,160.003
2631,159.486
2632,159.008
2633,158.333
2634,158.217
2635,158.867
2636,159.842
2637,160.917
2638,161.397
2639,160.939
2640,160.461
2641,159.856
2642,159.672
2643,159.339
2644,158.828
2645,158.089
2646,157.381
2647,156.461
2648,155.906
2649,156.478
2650,157.981
2651,158.658
2652,158.592
2653,158.111
2654,157.172
2655,156.011
2656,154.833
2657,154.150
2658,154.303
2659,153.781
2660,153.111
2661,153.253
2662,152.817
2663,152.044
2664,151.375
2665,149.767
2666,148.753
2667,149.275
2668,151.008
2669,152.900
2670,153.986
2671,154.367
2672,154.092
2673,155.514
2674,157.706
2675,158.647
2676,158.914
2677,159.997
2678,160.231
2679,159.764
2680,158.250
2681,157.436
2682,157.969
2683,158.103
2684,158.603
2685,158.414
2686,157.803
2687,157.833
2688,158.444
2689,160.247
2690,162.922
2691,163.492
2692,162.825
2693,163.433
2694,164.017
2695,163.192
2696,161.439
2697,160.086
2698,159.375
2699,157.792
2700,156.417
2701,156.158
2702,156.503
2703,157.217
2704,158.164
2705,159.706
2706,161.539
2707,161.847
2708,161.111
2709,161.672
2710,162.675
2711,161.247
2712,157.989
2713,155.583
2714,154.789
2715,154.806
2716,155.031
2717,155.128
2718,154.942
2719,153.825
2720,152.028
2721,151.644
2722,153.050
2723,154.169
2724,155.889
2725,156.300
2726,155.108
2727,152.700
2728,149.853
2729,148.428
2730,148.533
2731,149.656
2732,151.053
2733,152.456
2734,152.572
2735,150.894
2736,148.511
2737,147.706
2738,148.447
2739,148.581
2740,148.822
2741,148.353
2742,147.447
2743,146.658
2744,146.325
2745,146.644
2746,147.494
2747,147.214
2748,146.219
2749,143.672
2750,139.994
2751,137.422
2752,137.181
2753,136.300
2754,136.250
2755,135.167
2756,133.283
2757,132.453
2758,132.106
2759,131.764
2760,132.136
2761,133.381
2762,135.611
2763,135.244
2764,133.081
2765,132.600
2766,132.394
2767,131.586
2768,130.339
2769,129.947
2770,131.122
2771,129.142
2772,126.353
2773,125.869
2774,125.806
2775,126.231
2776,126.803
2777,128.250
2778,130.108
2779,130.319
2780,129.706
2781,128.736
2782,127.272
2783,125.164
2784,122.947
2785,121.556
2786,121.547
2787,122.500
2788,124.381
2789,126.333
2790,127.561
2791,127.297
2792,125.786
2793,125.725
2794,127.064
2795,127.178
2796,126.836
2797,127.158
2798,127.300
2799,126.811
2800,126.022
2801,124.911
2802,124.325
2803,123.258
2804,122.625
2805,124.942
2806,127.911
2807,130.811
2808,133.061
2809,135.683
2810,138.369
2811,139.856
2812,139.914
2813,140.125
2814,139.675
2815,138.467
2816,136.397
2817,137.422
2818,140.714
2819,142.389
2820,143.886
2821,146.569
2822,149.436
2823,149.572
2824,146.936
2825,145.603
2826,145.125
2827,146.028
2828,147.436
2829,150.317
2830,152.908
2831,155.208
2832,156.650
2833,158.100
2834,159.183
2835,158.639
2836,157.172
2837,158.850
2838,161.236
2839,162.997
2840,163.897
2841,165.450
2842,167.842
2843,170.411
2844,171.667
2845,174.172
2846,176.158
2847,176.550
2848,175.239
2849,174.456
2850,174.544
2851,175.239
2852,176.808
2853,178.311
2854,179.508
2855,180.681
2856,181.083
2857,182.619
2858,184.614
2859,185.642
2860,186.439
2861,187.861
2862,189.464
2863,190.033
2864,190.222
2865,191.614
2866,193.525
2867,193.875
2868,193.486
2869,194.619
2870,196.331
2871,196.094
2872,194.594
2873,193.100
2874,192.700
2875,192.853
2876,194.011
2877,195.033
2878,195.667
2879,196.639
2880,197.761
2881,198.400
2882,199.175
2883,199.322
2884,199.450
2885,200.753
2886,202.408
2887,203.103
2888,203.036
2889,202.761
2890,202.589
2891,202.061
2892,201.706
2893,202.217
2894,202.972
2895,203.089
2896,202.847
2897,202.700
2898,202.914
2899,202.769
2900,202.847
2901,203.478
2902,204.197
2903,203.681
2904,202.411
2905,202.511
2906,203.439
2907,204.617
2908,205.508
2909,205.953
2910,205.803
2911,205.475
2912,204.931
2913,205.744
2914,207.408
2915,207.000
2916,205.500
2917,203.672
2918,201.772
2919,199.869
2920,198.547
2921,198.444
2922,199.453
2923,199.578
2924,198.736
2925,199.603
2926,200.681
2927,201.353
2928,201.836
2929,203.531
2930,205.717
2931,207.658
2932,209.133
2933,209.989
2934,210.406
2935,210.347
2936,210.772
2937,211.072
2938,212.033
2939,211.986
2940,211.394
2941,211.614
2942,212.597
2943,213.550
2944,214.303
2945,214.908
2946,215.264
2947,215.300
2948,214.997
2949,214.994
2950,215.106
2951,214.808
2952,214.806
2953,215.233
2954,216.500
2955,217.031
2956,217.181
2957,217.342
2958,217.072
2959,217.239
2960,217.711
2961,219.508
2962,221.850
2963,223.106
2964,223.253
2965,222.611
2966,221.092
2967,220.333
2968,220.594
2969,221.375
2970,222.239
2971,222.181
2972,221.347
2973,220.894
2974,220.836
2975,220.575
2976,220.003
2977,220.447
2978,221.564
2979,221.628
2980,221.139
2981,220.508
2982,220.092
2983,219.881
2984,220.017
2985,220.875
2986,222.131
2987,222.628
2988,222.608
2989,223.531
2990,224.861
2991,224.164
2992,222.872
2993,222.628
2994,223.256
2995,223.103
2996,222.258
2997,221.461
2998,220.333
2999,219.875
3000,220.097
3001,221.686
3002,223.886
3003,224.944
3004,225.206
3005,226.042
3006,227.017
3007,227.450
3008,227.086
3009,226.175
3010,225.014
3011,223.842
3012,223.142
3013,223.442
3014,224.936
3015,225.700
3016,226.269
3017,225.261
3018,224.028
3019,222.836
3020,222.628
3021,223.492
3022,225.233
3023,226.858
3024,228.003
3025,229.350
3026,230.253
3027,230.328
3028,229.961
3029,228.625
3030,227.153
3031,225.725
3032,224.972
3033,224.869
3034,225.750
3035,225.406
3036,224.494
3037,224.747
3038,225.564
3039,225.794
3040,225.914
3041,225.803
3042,225.792
3043,225.706
3044,225.867
3045,226.331
3046,226.825
3047,227.242
3048,227.447
3049,227.167
3050,226.811
3051,226.617
3052,226.675
3053,227.200
3054,227.719
3055,227.925
3056,227.439
3057,227.333
3058,227.283
3059,227.836
3060,229.008
3061,230.144
3062,230.772
3063,230.728
3064,229.619
3065,228.964
3066,228.697
3067,228.272
3068,227.797
3069,227.658
3070,227.547
3071,227.406
3072,227.108
3073,227.428
3074,227.969
3075,229.017
3076,229.864
3077,229.797
3078,229.319
3079,228.853
3080,228.742
3081,228.636
3082,228.639
3083,227.869
3084,226.533
3085,226.664
3086,227.394
3087,228.611
3088,230.100
3089,231.111
3090,232.117
3091,232.022
3092,231.517
3093,231.642
3094,231.961
3095,232.572
3096,233.128
3097,232.358
3098,230.853
3099,229.833
3100,229.386
3101,229.728
3102,230.628
3103,230.803
3104,231.008
3105,230.681
3106,230.431
3107,230.247
3108,230.203
3109,229.869
3110,229.581
3111,229.511
3112,229.458
3113,229.706
3114,230.175
3115,230.192
3116,230.261
3117,230.233
3118,230.264
3119,230.989
3120,232.014
3121,232.094
3122,231.125
3123,230.275
3124,229.822
3125,229.661
3126,230.050
3127,230.508
3128,231.228
3129,231.475
3130,231.550
3131,231.722
3132,232.092
3133,231.994
3134,231.756
3135,230.672
3136,229.461
3137,228.464
3138,228.161
3139,228.058
3140,228.092
3141,228.078
3142,228.031
3143,228.486
3144,228.872
3145,229.100
3146,229.469
3147,229.467
3148,229.381
3149,229.583
3150,229.878
3151,229.808
3152,229.669
3153,230.089
3154,230.669
3155,230.806
3156,230.828
3157,230.825
3158,230.506
3159,230.217
3160,230.239
3161,230.700
3162,231.347
3163,231.511
3164,231.353
3165,231.144
3166,230.664
3167,230.214
3168,230.172
3169,230.322
3170,230.967
3171,231.203
3172,231.339
3173,230.811
3174,229.894
3175,228.928
3176,228.150
3177,226.872
3178,225.792
3179,224.758
3180,224.114
3181,224.233
3182,224.856
3183,224.531
3184,223.511
3185,222.489
3186,221.681
3187,221.544
3188,222.686
3189,224.419
3190,225.744
3191,226.714
3192,227.097
3193,227.097
3194,226.736
3195,226.789
3196,226.783
3197,226.758
3198,226.456
3199,226.406
3200,226.667
3201,226.594
3202,226.342
3203,226.317
3204,226.689
3205,227.008
3206,227.222
3207,227.283
3208,227.511
3209,227.775
3210,227.997
3211,228.000
3212,228.106
3213,228.014
3214,227.783
3215,227.867
3216,228.408
3217,228.042
3218,227.325
3219,226.406
3220,225.675
3221,225.464
3222,225.725
3223,225.969
3224,226.181
3225,226.794
3226,227.681
3227,227.731
3228,227.108
3229,226.719
3230,226.531
3231,226.156
3232,225.978
3233,225.642
3234,225.750
3235,225.217
3236,224.242
3237,223.747
3238,223.736
3239,223.800
3240,223.875
3241,223.756
3242,223.319
3243,223.172
3244,223.467
3245,224.033
3246,224.667
3247,224.500
3248,223.944
3249,223.258
3250,222.861
3251,222.186
3252,221.600
3253,220.558
3254,219.322
3255,218.750
3256,219.197
3257,220.097
3258,221.056
3259,221.703
3260,221.767
3261,221.481
3262,220.586
3263,220.736
3264,221.444
3265,221.925
3266,222.450
3267,222.828
3268,223.233
3269,222.592
3270,220.944
3271,219.297
3272,218.506
3273,218.311
3274,219.003
3275,219.264
3276,218.856
3277,218.797
3278,218.939
3279,219.325
3280,219.797
3281,220.050
3282,220.414
3283,220.211
3284,219.714
3285,219.142
3286,218.603
3287,217.939
3288,217.356
3289,215.906
3290,214.386
3291,213.761
3292,213.931
3293,214.325
3294,215.114
3295,215.728
3296,216.000
3297,216.453
3298,216.975
3299,215.672
3300,213.533
3301,212.853
3302,213.333
3303,214.228
3304,215.053
3305,215.597
3306,215.611
3307,215.350
3308,215.039
3309,214.183
3310,212.558
3311,211.081
3312,210.203
3313,210.056
3314,210.594
3315,210.175
3316,209.367
3317,209.114
3318,209.636
3319,210.394
3320,210.956
3321,211.344
3322,212.072
3323,211.133
3324,209.442
3325,207.650
3326,205.967
3327,206.564
3328,209.114
3329,210.842
3330,212.542
3331,212.472
3332,211.447
3333,209.856
3334,208.008
3335,206.489
3336,205.392
3337,204.014
3338,203.111
3339,201.858
3340,201.722
3341,202.561
3342,204.186
3343,205.297
3344,205.647
3345,205.308
3346,204.719
3347,204.189
3348,203.922
3349,204.242
3350,204.728
3351,203.700
3352,202.225
3353,201.731
3354,202.356
3355,202.217
3356,202.111
3357,202.508
3358,203.106
3359,202.939
3360,201.586
3361,200.831
3362,200.700
3363,199.783
3364,198.922
3365,198.664
3366,198.717
3367,198.908
3368,199.383
3369,199.458
3370,199.914
3371,199.550
3372,198.478
3373,196.794
3374,194.739
3375,193.753
3376,193.819
3377,193.931
3378,194.469
3379,194.033
3380,192.956
3381,191.864
3382,190.594
3383,190.200
3384,189.769
3385,189.531
3386,189.811
3387,188.953
3388,187.256
3389,186.558
3390,186.200
3391,184.517
3392,181.911
3393,180.906
3394,181.892
3395,182.128
3396,182.275
3397,183.006
3398,183.725
3399,182.761
3400,180.711
3401,179.275
3402,179.000
3403,178.969
3404,179.169
3405,179.864
3406,179.853
3407,177.836
3408,174.800
3409,171.039
3410,168.081
3411,165.172
3412,163.903
3413,163.172
3414,163.183
3415,162.689
3416,161.769
3417,160.000
3418,158.625
3419,154.969
3420,151.206
3421,149.389
3422,149.347
3423,148.742
3424,148.122
3425,147.133
3426,146.311
3427,143.817
3428,140.914
3429,137.694
3430,134.592
3431,130.475
3432,126.722
3433,123.867
3434,123.314
3435,121.397
3436,119.097
3437,116.408
3438,113.828
3439,112.933
3440,113.369
3441,114.717
3442,117.039
3443,117.372
3444,116.517
3445,116.947
3446,117.933
3447,118.775
3448,118.967
3449,120.514
3450,122.967
3451,122.806
3452,121.047
3453,119.792
3454,119.378
3455,119.375
3456,119.539
3457,118.689
3458,118.017
3459,116.550
3460,115.047
3461,114.528
3462,115.014
3463,115.647
3464,116.181
3465,117.261
3466,119.089
3467,120.806
3468,121.889
3469,123.122
3470,123.692
3471,121.694
3472,118.542
3473,116.167
3474,116.208
3475,117.892
3476,121.033
3477,122.711
3478,122.725
3479,121.981
3480,120.331
3481,119.756
3482,120.700
3483,122.111
3484,123.061
3485,125.675
3486,128.258
3487,128.872
3488,126.531
3489,124.950
3490,124.494
3491,124.678
3492,125.450
3493,127.183
3494,129.408
3495,129.969
3496,129.167
3497,128.869
3498,130.114
3499,130.922
3500,131.517
3501,132.753
3502,133.675
3503,133.894
3504,133.058
3505,132.269
3506,132.283
3507,133.133
3508,134.525
3509,136.706
3510,138.553
3511,140.044
3512,140.597
3513,141.806
3514,143.811
3515,145.264
3516,146.156
3517,147.200
3518,147.769
3519,147.925
3520,148.008
3521,148.678
3522,150.322
3523,151.103
3524,151.369
3525,151.469
3526,151.194
3527,151.139
3528,150.983
3529,151.656
3530,153.772
3531,155.300
3532,156.236
3533,157.997
3534,158.794
3535,158.083
3536,156.311
3537,154.997
3538,155.022
3539,155.000
3540,155.147
3541,155.661
3542,156.128
3543,156.708
3544,157.050
3545,155.967
3546,154.936
3547,153.733
3548,152.983
3549,154.117
3550,156.458
3551,158.386
3552,158.856
3553,159.044
3554,159.900
3555,159.381
3556,157.939
3557,157.894
3558,158.856
3559,158.978
3560,158.928
3561,159.142
3562,159.503
3563,159.508
3564,159.444
3565,159.264
3566,159.358
3567,159.253
3568,158.972
3569,159.781
3570,161.736
3571,162.419
3572,162.481
3573,162.581
3574,161.992
3575,161.542
3576,161.028
3577,160.631
3578,160.783
3579,160.883
3580,160.742
3581,161.286
3582,161.900
3583,162.153
3584,162.206
3585,162.578
3586,163.056
3587,162.833
3588,162.125
3589,161.822
3590,161.856
3591,162.203
3592,162.664
3593,162.967
3594,163.628
3595,162.936
3596,161.772
3597,160.686
3598,160.106
3599,159.153
3600,158.678
3601,158.036
3602,157.453
3603,157.636
3604,158.153
3605,158.211
3606,157.817
3607,157.364
3608,157.197
3609,157.608
3610,158.556
3611,158.497
3612,157.611
3613,157.608
3614,158.386
3615,158.756
3616,158.972
3617,158.650
3618,158.700
3619,157.783
3620,156.786
3621,156.594
3622,156.500
3623,155.658
3624,154.542
3625,153.178
3626,152.900
3627,152.594
3628,152.583
3629,152.531
3630,152.108
3631,151.842
3632,151.867
3633,151.208
3634,150.656
3635,149.769
3636,149.478
3637,149.714
3638,149.833
3639,149.933
3640,150.056
3641,150.203
3642,150.689
3643,150.983
3644,151.006
3645,150.564
3646,149.311
3647,148.308
3648,147.522
3649,147.681
3650,148.839
3651,149.614
3652,150.125
3653,149.708
3654,148.956
3655,147.928
3656,147.711
3657,147.081
3658,146.739
3659,145.461
3660,143.372
3661,142.192
3662,141.672
3663,140.703
3664,140.097
3665,139.564
3666,140.058
3667,139.808
3668,138.997
3669,138.508
3670,138.219
3671,137.839
3672,138.203
3673,137.194
3674,136.611
3675,135.028
3676,133.797
3677,133.486
3678,133.342
3679,131.922
3680,129.544
3681,126.689
3682,124.111
3683,119.928
3684,115.764
3685,111.289
3686,107.344
3687,104.231
3688,103.194
3689,102.494
3690,103.083
3691,104.489
3692,106.186
3693,107.411
3694,107.953
3695,108.697
3696,109.075
3697,109.489
3698,110.622
3699,110.119
3700,108.744
3701,107.553
3702,105.972
3703,106.097
3704,107.039
3705,108.692
3706,110.556
3707,110.375
3708,108.894
3709,107.958
3710,107.069
3711,106.150
3712,106.197
3713,105.506
3714,105.672
3715,104.969
3716,103.850
3717,103.186
3718,103.022
3719,102.808
3720,102.119
3721,101.547
3722,101.436
3723,100.461
3724,99.111
3725,97.281
3726,95.125
3727,94.317
3728,93.997
3729,93.556
3730,93.592
3731,93.069
3732,92.131
3733,90.786
3734,89.136
3735,87.867
3736,87.400
3737,86.792
3738,87.047
3739,86.700
3740,85.750
3741,84.433
3742,83.061
3743,81.972
3744,82.117
3745,81.533
3746,81.036
3747,80.325
3748,79.725
3749,79.339
3750,78.483
3751,77.558
3752,77.131
3753,75.947
3754,75.147
3755,74.450
3756,74.511
3757,74.072
3758,72.769
3759,71.889
3760,71.639
3761,70.853
3762,70.453
3763,70.678
3764,71.256
3765,71.750
3766,71.981
3767,72.044
3768,71.658
3769,71.294
3770,71.328
3771,71.378
3772,71.608
3773,72.347
3774,72.911
3775,72.644
3776,70.961
3777,70.717
3778,71.375
3779,71.533
3780,71.331
3781,70.725
3782,70.283
3783,70.319
3784,71.017
3785,71.508
3786,72.442
3787,72.931
3788,73.575
3789,73.978
3790,74.614
3791,75.436
3792,77.219
3793,77.628
3794,77.700
3795,77.764
3796,78.367
3797,79.536
3798,80.564
3799,81.692
3800,82.311
3801,83.025
3802,84.594
3803,85.425
3804,86.231
3805,87.069
3806,87.203
3807,87.217
3808,87.214
3809,88.333
3810,90.744
3811,92.139
3812,92.756
3813,93.592
3814,94.069
3815,93.858
3816,93.339
3817,93.536
3818,95.728
3819,96.711
3820,96.939
3821,97.400
3822,97.886
3823,98.067
3824,98.144
3825,97.464
3826,96.611
3827,95.961
3828,96.275
3829,97.139
3830,98.283
3831,99.642
3832,101.308
3833,101.478
3834,101.247
3835,101.008
3836,101.039
3837,102.383
3838,104.297
3839,104.806
3840,103.228
3841,102.500
3842,102.717
3843,102.789
3844,102.517
3845,102.483
3846,102.486
3847,101.333
3848,99.656
3849,99.600
3850,101.831
3851,103.728
3852,106.256
3853,107.161
3854,106.050
3855,103.400
3856,100.622
3857,99.369
3858,101.817
3859,102.486
3860,102.953
3861,104.731
3862,107.008
3863,108.139
3864,108.089
3865,108.314
3866,109.356
3867,109.417
3868,109.253
3869,109.836
3870,110.703
3871,111.133
3872,111.003
3873,111.272
3874,112.033
3875,113.231
3876,115.061
3877,118.444
3878,121.856
3879,123.625
3880,124.394
3881,125.136
3882,126.056
3883,125.978
3884,125.319
3885,123.283
3886,120.006
3887,116.619
3888,115.114
3889,114.358
3890,116.236
3891,118.261
3892,119.889
3893,120.469
3894,120.403
3895,119.725
3896,119.389
3897,120.094
3898,122.447
3899,122.939
3900,122.567
3901,122.239
3902,122.028
3903,120.944
3904,119.825
3905,118.694
3906,118.303
3907,118.317
3908,118.839
3909,120.756
3910,122.575
3911,123.497
3912,123.303
3913,122.625
3914,122.519
3915,122.469
3916,121.956
3917,121.181
3918,119.806
3919,119.086
3920,119.653
3921,119.022
3922,118.675
3923,117.769
3924,116.822
3925,114.692
3926,111.867
3927,109.806
3928,109.511
3929,109.853
3930,111.750
3931,111.319
3932,109.178
3933,106.503
3934,103.378
3935,101.039
3936,100.272
3937,101.175
3938,104.111
3939,106.919
3940,108.742
3941,110.850
3942,112.586
3943,114.061
3944,115.383
3945,117.264
3946,119.425
3947,120.572
3948,120.769
3949,121.081
3950,121.242
3951,120.719
3952,119.497
3953,118.236
3954,117.283
3955,116.006
3956,115.019
3957,115.292
3958,116.381
3959,117.192
3960,117.475
3961,117.489
3962,117.372
3963,115.425
3964,113.733
3965,112.008
3966,111.111
3967,110.408
3968,110.044
3969,108.869
3970,107.592
3971,106.222
3972,106.103
3973,104.694
3974,103.086
3975,102.697
3976,103.442
3977,104.669
3978,106.578
3979,106.481
3980,104.981
3981,104.128
3982,104.111
3983,102.922
3984,100.642
3985,98.608
3986,98.522
3987,97.761
3988,97.508
3989,97.294
3990,97.564
3991,98.017
3992,98.444
3993,99.264
3994,100.742
3995,101.864
3996,102.411
3997,103.294
3998,103.681
3999,102.531
4000,99.944
4001,97.911
4002,98.017
4003,97.317
4004,97.161
4005,97.419
4006,97.461
4007,97.469
4008,96.425
4009,95.794
4010,96.364
4011,96.536
4012,96.367
4013,96.103
4014,95.489
4015,94.056
4016,92.386
4017,92.483
4018,94.828
4019,95.417
4020,93.964
4021,92.450
4022,90.453
4023,89.306
4024,89.339
4025,88.225
4026,87.347
4027,85.911
4028,84.672
4029,83.594
4030,82.686
4031,82.428
4032,82.950
4033,82.597
4034,82.250
4035,81.278
4036,80.406
4037,79.217
4038,78.200
4039,77.353
4040,77.564
4041,77.497
4042,77.819
4043,78.278
4044,78.361
4045,78.072
4046,77.808
4047,76.744
4048,75.939
4049,75.583
4050,76.761
4051,76.842
4052,75.969
4053,74.750
4054,72.319
4055,71.219
4056,71.389
4057,71.231
4058,71.756
4059,72.292
4060,72.822
4061,73.261
4062,73.392
4063,73.064
4064,71.178
4065,70.250
4066,70.489
4067,70.217
4068,69.253
4069,67.864
4070,66.161
4071,65.297
4072,65.325
4073,64.683
4074,64.228
4075,62.636
4076,60.872
4077,59.347
4078,58.147
4079,57.214
4080,57.297
4081,55.092
4082,52.158
4083,49.800
4084,48.550
4085,47.008
4086,45.517
4087,44.667
4088,45.381
4089,45.769
4090,46.547
4091,45.831
4092,44.803
4093,43.944
4094,43.122
4095,42.611
4096,42.636
4097,41.861
4098,41.161
4099,40.575
4100,40.475
4101,40.008
4102,39.814
4103,39.822
4104,40.164
4105,40.208
4106,40.342
4107,40.075
4108,39.922
4109,40.031
4110,40.381
4111,40.583
4112,40.367
4113,40.208
4114,40.375
4115,39.850
4116,39.439
4117,39.147
4118,39.119
4119,39.522
4120,40.158
4121,40.206
4122,40.256
4123,40.539
4124,41.019
4125,41.797
4126,42.214
4127,42.394
4128,42.778
4129,42.947
4130,44.122
4131,44.681
4132,45.228
4133,46.033
4134,47.022
4135,48.167
4136,49.106
4137,49.886
4138,51.628
4139,52.247
4140,52.114
4141,52.253
4142,52.442
4143,52.125
4144,51.528
4145,50.564
4146,50.394
4147,50.647
4148,51.872
4149,53.139
4150,54.414
4151,56.372
4152,58.408
4153,59.867
4154,61.403
4155,61.833
4156,62.386
4157,62.525
4158,62.803
4159,63.275
4160,63.217
4161,63.561
4162,64.278
4163,64.328
4164,64.372
4165,64.144
4166,64.578
4167,65.472
4168,66.597
4169,67.619
4170,68.900
4171,68.994
4172,68.589
4173,68.394
4174,68.944
4175,69.008
4176,69.292
4177,70.122
4178,71.456
4179,71.431
4180,70.406
4181,69.011
4182,67.636
4183,66.558
4184,66.586
4185,66.514
4186,66.958
4187,67.408
4188,68.378
4189,69.119
4190,69.364
4191,69.325
4192,68.972
4193,68.336
4194,68.772
4195,69.436
4196,70.367
4197,71.606
4198,72.983
4199,73.736
4200,74.372
4201,74.272
4202,74.375
4203,74.322
4204,74.308
4205,75.228
4206,76.536
4207,76.772
4208,76.125
4209,75.747
4210,76.569
4211,76.933
4212,76.556
4213,76.308
4214,76.847
4215,76.986
4216,77.297
4217,77.814
4218,79.758
4219,80.711
4220,81.642
4221,82.244
4222,82.417
4223,82.336
4224,82.231
4225,81.925
4226,82.139
4227,82.006
4228,81.864
4229,81.853
4230,82.108
4231,82.847
4232,83.239
4233,83.622
4234,84.542
4235,84.381
4236,84.072
4237,85.081
4238,86.983
4239,88.167
4240,88.586
4241,87.908
4242,87.294
4243,86.467
4244,85.597
4245,85.242
4246,84.844
4247,84.556
4248,84.767
4249,84.175
4250,84.247
4251,83.856
4252,83.547
4253,83.244
4254,83.239
4255,83.814
4256,85.250
4257,86.003
4258,86.961
4259,86.033
4260,83.811
4261,82.092
4262,81.764
4263,81.728
4264,82.553
4265,82.158
4266,82.192
4267,81.286
4268,80.311
4269,80.047
4270,80.053
4271,80.442
4272,80.914
4273,81.228
4274,81.550
4275,81.736
4276,81.850
4277,82.506
4278,83.222
4279,82.886
4280,81.483
4281,80.281
4282,79.800
4283,80.031
4284,80.806
4285,81.128
4286,80.953
4287,80.292
4288,79.175
4289,77.928
4290,77.961
4291,78.150
4292,78.625
4293,79.872
4294,80.703
4295,80.997
4296,80.022
4297,78.400
4298,77.719
4299,77.258
4300,77.592
4301,77.775
4302,77.439
4303,77.744
4304,78.397
4305,78.842
4306,79.097
4307,78.453
4308,77.572
4309,76.800
4310,76.375
4311,76.369
4312,76.828
4313,76.583
4314,76.800
4315,75.742
4316,74.181
4317,72.411
4318,70.489
4319,70.056
4320,71.444
4321,72.325
4322,73.367
4323,72.639
4324,70.542
4325,68.972
4326,68.028
4327,67.456
4328,68.017
4329,67.731
4330,67.789
4331,67.347
4332,66.564
4333,65.953
4334,65.489
4335,65.239
4336,64.917
4337,64.792
4338,65.103
4339,64.972
4340,64.483
4341,64.008
4342,63.942
4343,63.828
4344,64.361
4345,63.794
4346,64.058
4347,63.147
4348,62.358
4349,62.044
4350,61.792
4351,62.172
4352,62.383
4353,62.528
4354,62.414
4355,61.608
4356,60.467
4357,59.556
4358,58.792
4359,58.339
4360,58.222
4361,58.244
4362,58.581
4363,58.631
4364,58.903
4365,58.925
4366,58.550
4367,58.269
4368,58.408
4369,58.019
4370,58.492
4371,58.292
4372,57.364
4373,57.044
4374,57.231
4375,57.050
4376,56.642
4377,56.264
4378,55.867
4379,55.375
4380,54.681
4381,54.342
4382,53.992
4383,53.575
4384,52.867
4385,52.019
4386,51.639
4387,50.739
4388,50.214
4389,49.939
4390,49.097
4391,48.736
4392,48.581
4393,48.450
4394,48.542
4395,48.000
4396,47.431
4397,46.847
4398,46.314
4399,45.972
4400,46.003
4401,45.725
4402,46.100
4403,45.706
4404,44.775
4405,44.136
4406,43.614
4407,42.614
4408,42.075
4409,41.492
4410,41.356
4411,41.347
4412,41.247
4413,40.919
4414,40.506
4415,39.850
4416,39.478
4417,39.044
4418,38.856
4419,38.919
4420,39.331
4421,39.764
4422,39.850
4423,39.947
4424,39.722
4425,39.433
4426,39.189
4427,38.831
4428,38.522
4429,38.328
4430,38.400
4431,38.317
4432,37.778
4433,37.822
4434,38.289
4435,38.206
4436,37.728
4437,37.619
4438,37.658
4439,37.564
4440,37.314
4441,37.583
4442,38.281
4443,38.819
4444,39.147
4445,39.564
4446,40.136
4447,40.417
4448,40.853
4449,41.406
4450,43.058
4451,44.336
4452,45.467
4453,46.628
4454,47.686
4455,48.525
4456,48.878
4457,49.206
4458,49.850
4459,50.033
4460,49.569
4461,49.633
4462,50.331
4463,50.867
4464,51.231
4465,51.181
4466,51.439
4467,51.656
4468,51.392
4469,52.286
4470,54.167
4471,54.978
4472,55.286
4473,55.039
4474,55.242
4475,54.889
4476,54.478
4477,54.447
4478,54.425
4479,54.433
4480,54.533
4481,54.603
4482,55.678
4483,56.308
4484,56.486
4485,57.042
4486,57.747
4487,57.981
4488,57.878
4489,58.278
4490,59.153
4491,59.969
4492,61.028
4493,62.058
4494,62.656
4495,62.533
4496,61.731
4497,60.972
4498,60.914
4499,61.300
4500,62.458
4501,64.444
4502,65.983
4503,66.664
4504,66.239
4505,64.903
4506,64.067
4507,64.031
4508,64.864
4509,65.903
4510,66.750
4511,67.356
4512,66.694
4513,66.569
4514,67.725
4515,68.458
4516,68.053
4517,67.581
4518,67.347
4519,67.142
4520,67.139
4521,67.225
4522,67.742
4523,67.975
4524,68.475
4525,69.258
4526,69.886
4527,70.383
4528,70.272
4529,70.261
4530,70.792
4531,71.150
4532,71.483
4533,72.081
4534,72.361
4535,71.772
4536,70.736
4537,69.750
4538,70.264
4539,70.258
4540,70.375
4541,70.956
4542,71.417
4543,71.353
4544,70.797
4545,70.239
4546,70.214
4547,70.492
4548,71.178
4549,71.669
4550,71.783
4551,72.125
4552,72.433
4553,72.644
4554,73.444
4555,73.117
4556,72.225
4557,71.583
4558,71.478
4559,71.372
4560,71.339
4561,70.756
4562,69.861
4563,69.328
4564,69.550
4565,70.233
4566,70.894
4567,71.769
4568,72.797
4569,73.692
4570,74.072
4571,74.692
4572,75.311
4573,75.831
4574,75.892
4575,75.656
4576,75.061
4577,73.906
4578,73.383
4579,72.708
4580,72.928
4581,73.172
4582,72.928
4583,73.172
4584,72.919
4585,72.197
4586,71.136
4587,70.286
4588,69.967
4589,70.139
4590,70.675
4591,70.778
4592,70.986
4593,71.131
4594,71.689
4595,72.186
4596,72.972
4597,73.225
4598,73.611
4599,73.467
4600,72.858
4601,71.794
4602,71.239
4603,70.819
4604,70.961
4605,71.058
4606,70.917
4607,71.350
4608,71.489
4609,71.292
4610,71.564
4611,71.508
4612,71.444
4613,71.778
4614,72.122
4615,72.111
4616,71.969
4617,71.139
4618,70.375
4619,69.833
4620,69.675
4621,69.578
4622,70.072
4623,70.225
4624,69.686
4625,69.008
4626,69.033
4627,68.936
4628,68.858
4629,68.892
4630,69.133
4631,69.478
4632,69.428
4633,69.525
4634,69.825
4635,69.139
4636,67.692
4637,66.222
4638,65.647
4639,65.464
4640,65.772
4641,66.331
4642,67.103
4643,67.028
4644,66.208
4645,65.164
4646,64.592
4647,64.172
4648,64.144
4649,64.789
4650,66.464
4651,66.828
4652,66.233
4653,64.922
4654,63.386
4655,62.336
4656,62.114
4657,61.842
4658,61.572
4659,60.983
4660,60.872
4661,61.011
4662,61.344
4663,61.314
4664,60.922
4665,60.308
4666,59.983
4667,59.203
4668,58.017
4669,56.539
4670,55.494
4671,54.453
4672,53.372
4673,52.633
4674,52.250
4675,51.889
4676,51.936
4677,52.153
4678,52.617
4679,52.942
4680,52.689
4681,52.608
4682,52.617
4683,52.933
4684,53.547
4685,54.406
4686,55.281
4687,55.392
4688,54.925
4689,54.369
4690,53.892
4691,53.567
4692,53.689
4693,54.225
4694,54.947
4695,55.414
4696,55.653
4697,55.311
4698,55.494
4699,55.167
4700,54.844
4701,55.114
4702,55.550
4703,55.714
4704,55.572
4705,55.506
4706,55.522
4707,54.939
4708,54.228
4709,53.767
4710,53.289
4711,52.847
4712,52.328
4713,51.397
4714,51.008
4715,50.800
4716,50.544
4717,50.267
4718,49.858
4719,49.378
4720,48.942
4721,48.314
4722,48.381
4723,48.100
4724,47.581
4725,47.289
4726,47.050
4727,47.000
4728,47.253
4729,47.100
4730,47.308
4731,46.856
4732,46.467
4733,46.517
4734,46.772
4735,47.233
4736,47.106
4737,46.819
4738,47.067
4739,46.839
4740,46.889
4741,47.019
4742,47.089
4743,47.117
4744,46.889
4745,46.489
4746,46.694
4747,46.911
4748,46.867
4749,46.839
4750,47.278
4751,47.514
4752,47.514
4753,47.233
4754,47.097
4755,46.881
4756,46.594
4757,46.369
4758,46.403
4759,46.400
4760,46.250
4761,46.044
4762,46.631
4763,47.172
4764,47.619
4765,48.064
4766,48.300
4767,48.194
4768,48.406
4769,48.567
4770,49.047
4771,49.636
4772,49.836
4773,49.708
4774,49.389
4775,48.911
4776,48.689
4777,48.269
4778,48.642
4779,49.228
4780,49.714
4781,50.119
4782,50.558
4783,50.850
4784,50.733
4785,50.839
4786,50.919
4787,50.869
4788,50.958
4789,51.453
4790,51.956
4791,52.100
4792,52.144
4793,51.925
4794,52.317
4795,52.189
4796,51.425
4797,50.808
4798,50.475
4799,50.278
4800,50.206
4801,49.797
4802,49.703
4803,49.661
4804,50.403
4805,51.114
4806,51.472
4807,52.331
4808,52.503
4809,52.661
4810,53.342
4811,53.394
4812,52.942
4813,52.836
4814,53.061
4815,53.128
4816,53.069
4817,53.333
4818,53.986
4819,54.197
4820,53.975
4821,54.008
4822,54.556
4823,54.725
4824,55.478
4825,55.783
4826,56.503
4827,56.600
4828,56.203
4829,55.661
4830,55.444
4831,55.589
4832,55.425
4833,55.642
4834,55.975
4835,56.397
4836,57.228
4837,58.083
4838,58.658
4839,58.808
4840,58.858
4841,58.361
4842,58.217
4843,58.258
4844,58.244
4845,58.142
4846,58.072
4847,57.817
4848,57.742
4849,57.275
4850,57.525
4851,57.872
4852,58.544
4853,59.197
4854,58.975
4855,58.350
4856,57.467
4857,55.989
4858,55.906
4859,55.939
4860,56.258
4861,56.986
4862,57.636
4863,58.164
4864,58.767
4865,59.336
4866,60.264
4867,60.533
4868,60.106
4869,59.878
4870,60.028
4871,60.083
4872,59.669
4873,59.381
4874,59.542
4875,58.972
4876,57.958
4877,57.467
4878,57.603
4879,57.836
4880,57.769
4881,57.644
4882,57.308
4883,57.103
4884,56.761
4885,56.269
4886,55.925
4887,55.622
4888,55.775
4889,55.717
4890,56.739
4891,56.694
4892,56.058
4893,55.331
4894,54.531
4895,53.922
4896,54.272
4897,54.089
4898,54.406
4899,54.114
4900,53.761
4901,53.614
4902,53.386
4903,53.189
4904,53.178
4905,52.828
4906,52.883
4907,52.983
4908,53.069
4909,53.225
4910,53.583
4911,53.456
4912,53.000
4913,51.956
4914,51.692
4915,51.569
4916,51.642
4917,52.136
4918,52.319
4919,52.678
4920,52.750
4921,52.653
4922,53.397
4923,53.669
4924,53.775
4925,54.372
4926,55.019
4927,54.958
4928,54.844
4929,54.644
4930,54.575
4931,54.131
4932,53.900
4933,53.628
4934,53.761
4935,53.531
4936,52.794
4937,51.858
4938,51.264
4939,51.225
4940,51.342
4941,51.561
4942,51.950
4943,52.031
4944,51.789
4945,51.686
4946,51.819
4947,51.411
4948,50.736
4949,50.072
4950,49.236
4951,48.533
4952,48.142
4953,47.675
4954,47.331
4955,47.106
4956,47.022
4957,47.019
4958,47.561
4959,48.092
4960,48.319
4961,48.608
4962,49.319
4963,48.989
4964,47.919
4965,47.386
4966,47.581
4967,47.786
4968,47.942
4969,47.708
4970,47.506
4971,46.797
4972,46.317
4973,46.192
4974,46.075
4975,46.092
4976,46.153
4977,46.136
4978,46.611
4979,46.625
4980,46.150
4981,45.817
4982,45.653
4983,45.500
4984,45.386
4985,44.844
4986,44.944
4987,44.508
4988,44.103
4989,43.908
4990,43.550
4991,43.394
4992,43.247
4993,43.156
4994,43.411
4995,43.261
4996,42.856
4997,42.444
4998,42.517
4999,42.475
5000,42.058
5001,41.617
5002,41.650
5003,41.192
5004,40.717
5005,40.714
5006,40.981
5007,41.253
5008,41.019
5009,40.506
5010,40.258
5011,39.803
5012,39.519
5013,39.342
5014,39.581
5015,39.625
5016,39.264
5017,38.550
5018,37.997
5019,37.658
5020,37.775
5021,37.933
5022,38.069
5023,37.981
5024,37.375
5025,37.031
5026,37.114
5027,37.383
5028,37.536
5029,37.489
5030,37.483
5031,37.172
5032,37.114
5033,36.856
5034,37.136
5035,37.214
5036,37.467
5037,37.356
5038,36.975
5039,36.886
5040,37.097
5041,36.736
5042,37.086
5043,37.253
5044,36.864
5045,36.647
5046,36.961
5047,36.903
5048,36.775
5049,36.694
5050,36.581
5051,36.589
5052,36.808
5053,37.200
5054,37.500
5055,37.425
5056,37.225
5057,37.247
5058,37.769
5059,37.825
5060,37.608
5061,37.528
5062,37.431
5063,37.167
5064,37.617
5065,37.953
5066,38.597
5067,38.936
5068,38.806
5069,38.414
5070,38.339
5071,38.106
5072,38.714
5073,39.258
5074,40.292
5075,40.719
5076,40.397
5077,39.983
5078,39.889
5079,39.783
5080,39.808
5081,39.553
5082,39.647
5083,39.369
5084,39.081
5085,39.233
5086,39.567
5087,39.817
5088,39.589
5089,39.375
5090,39.325
5091,38.978
5092,39.306
5093,40.278
5094,41.819
5095,43.086
5096,43.219
5097,42.408
5098,41.700
5099,41.139
5100,41.158
5101,41.567
5102,42.356
5103,42.708
5104,42.189
5105,42.094
5106,42.447
5107,42.669
5108,42.775
5109,43.033
5110,43.497
5111,43.528
5112,42.756
5113,42.008
5114,42.628
5115,43.086
5116,43.672
5117,44.164
5118,44.186
5119,44.525
5120,44.161
5121,43.875
5122,44.381
5123,44.456
5124,44.383
5125,44.533
5126,44.861
5127,45.239
5128,45.319
5129,45.481
5130,45.944
5131,45.814
5132,45.150
5133,44.806
5134,45.011
5135,45.306
5136,46.064
5137,46.131
5138,46.428
5139,46.019
5140,45.483
5141,45.461
5142,45.839
5143,46.233
5144,45.400
5145,44.661
5146,44.161
5147,43.717
5148,43.508
5149,43.392
5150,43.458
5151,43.297
5152,43.822
5153,43.803
5154,44.525
5155,45.261
5156,45.969
5157,46.553
5158,47.361
5159,47.753
5160,47.483
5161,47.233
5162,48.089
5163,47.808
5164,46.664
5165,45.797
5166,45.289
5167,45.281
5168,45.586
5169,45.947
5170,46.775
5171,46.825
5172,46.731
5173,46.803
5174,47.281
5175,47.794
5176,48.383
5177,48.514
5178,49.319
5179,49.244
5180,48.319
5181,47.694
5182,47.789
5183,47.781
5184,47.667
5185,47.856
5186,48.408
5187,48.633
5188,48.622
5189,48.806
5190,49.333
5191,49.361
5192,49.144
5193,47.575
5194,46.119
5195,45.122
5196,44.950
5197,45.289
5198,46.019
5199,46.611
5200,46.903
5201,46.714
5202,46.758
5203,46.547
5204,46.444
5205,46.347
5206,46.258
5207,46.256
5208,46.856
5209,47.061
5210,48.333
5211,49.075
5212,49.333
5213,49.644
5214,49.689
5215,49.864
5216,49.150
5217,48.781
5218,48.961
5219,48.661
5220,48.303
5221,47.697
5222,47.489
5223,47.464
5224,47.550
5225,47.283
5226,46.903
5227,46.856
5228,47.453
5229,47.986
5230,48.528
5231,48.644
5232,48.072
5233,47.558
5234,47.892
5235,48.153
5236,47.767
5237,47.750
5238,47.964
5239,47.486
5240,46.086
5241,44.308
5242,43.022
5243,42.597
5244,43.081
5245,43.869
5246,43.958
5247,43.744
5248,43.658
5249,43.464
5250,43.992
5251,44.222
5252,43.942
5253,43.339
5254,42.681
5255,42.103
5256,41.958
5257,41.392
5258,41.372
5259,41.181
5260,40.722
5261,40.456
5262,40.486
5263,40.558
5264,41.497
5265,41.708
5266,42.692
5267,42.733
5268,42.064
5269,41.972
5270,42.222
5271,42.031
5272,41.494
5273,40.728
5274,40.408
5275,39.767
5276,39.597
5277,39.464
5278,39.100
5279,39.339
5280,39.344
5281,39.536
5282,40.253
5283,40.597
5284,40.253
5285,39.983
5286,39.778
5287,39.639
5288,39.467
5289,39.428
5290,39.825
5291,40.167
5292,40.536
5293,40.628
5294,40.789
5295,40.775
5296,40.614
5297,40.239
5298,40.156
5299,40.183
5300,40.403
5301,40.633
5302,40.922
5303,40.742
5304,40.497
5305,40.197
5306,40.631
5307,40.358
5308,39.542
5309,38.775
5310,38.364
5311,37.847
5312,37.511
5313,36.925
5314,36.483
5315,36.583
5316,36.883
5317,37.053
5318,37.472
5319,37.414
5320,37.194
5321,36.872
5322,36.978
5323,36.808
5324,36.378
5325,36.039
5326,36.344
5327,36.450
5328,35.964
5329,35.489
5330,35.575
5331,35.269
5332,35.275
5333,35.414
5334,35.442
5335,35.767
5336,35.803
5337,35.622
5338,35.850
5339,35.606
5340,35.017
5341,34.569
5342,34.439
5343,34.383
5344,34.689
5345,34.753
5346,35.317
5347,35.392
5348,35.164
5349,34.878
5350,34.383
5351,34.281
5352,34.342
5353,34.139
5354,34.203
5355,34.061
5356,33.844
5357,33.883
5358,33.694
5359,33.364
5360,33.283
5361,32.908
5362,32.858
5363,32.644
5364,32.736
5365,33.031
5366,33.203
5367,33.575
5368,33.400
5369,33.361
5370,33.578
5371,33.711
5372,33.794
5373,33.675
5374,33.742
5375,33.586
5376,33.578
5377,33.347
5378,33.542
5379,33.425
5380,33.158
5381,32.917
5382,32.597
5383,32.592
5384,32.633
5385,32.761
5386,33.086
5387,33.292
5388,33.283
5389,33.561
5390,33.997
5391,34.108
5392,33.892
5393,33.703
5394,33.917
5395,34.036
5396,33.983
5397,34.025
5398,34.072
5399,33.908
5400,33.678
5401,33.353
5402,33.739
5403,34.133
5404,34.511
5405,34.978
5406,35.786
5407,36.478
5408,36.572
5409,36.522
5410,36.708
5411,36.814
5412,36.539
5413,36.406
5414,36.417
5415,36.353
5416,36.917
5417,36.967
5418,36.931
5419,36.925
5420,36.953
5421,37.136
5422,37.819
5423,38.431
5424,38.417
5425,38.342
5426,38.686
5427,38.789
5428,38.569
5429,38.392
5430,38.500
5431,38.406
5432,38.225
5433,38.181
5434,38.158
5435,38.261
5436,38.800
5437,39.031
5438,39.361
5439,39.494
5440,39.567
5441,39.514
5442,39.850
5443,40.033
5444,39.797
5445,39.461
5446,39.222
5447,38.969
5448,39.419
5449,39.389
5450,39.772
5451,39.753
5452,39.647
5453,39.850
5454,40.206
5455,40.353
5456,40.692
5457,40.489
5458,40.183
5459,39.961
5460,39.894
5461,40.075
5462,40.272
5463,40.244
5464,40.094
5465,39.436
5466,39.331
5467,38.994
5468,38.792
5469,38.886
5470,39.633
5471,40.108
5472,40.383
5473,40.269
5474,40.969
5475,40.756
5476,40.461
5477,40.342
5478,40.028
5479,39.925
5480,40.067
5481,39.944
5482,40.217
5483,40.181
5484,39.892
5485,39.594
5486,39.783
5487,39.897
5488,39.972
5489,39.875
5490,40.128
5491,40.033
5492,39.878
5493,39.797
5494,39.922
5495,39.986
5496,39.989
5497,39.708
5498,39.939
5499,39.914
5500,39.875
5501,40.047
5502,40.556
5503,40.528
5504,40.753
5505,40.383
5506,40.472
5507,40.206
5508,39.411
5509,38.808
5510,38.708
5511,38.542
5512,39.019
5513,39.314
5514,39.842
5515,39.967
5516,40.031
5517,39.797
5518,39.558
5519,39.281
5520,38.992
5521,38.506
5522,38.806
5523,38.928
5524,38.703
5525,38.692
5526,39.161
5527,39.242
5528,39.136
5529,38.875
5530,38.786
5531,38.567
5532,38.547
5533,38.814
5534,39.228
5535,39.125
5536,38.958
5537,37.947
5538,37.647
5539,37.519
5540,37.239
5541,37.014
5542,37.164
5543,37.347
5544,37.219
5545,37.047
5546,37.364
5547,37.456
5548,37.175
5549,36.931
5550,36.928
5551,36.803
5552,36.894
5553,36.297
5554,36.417
5555,36.292
5556,36.022
5557,35.653
5558,35.300
5559,34.811
5560,34.881
5561,34.569
5562,35.464
5563,36.206
5564,36.211
5565,36.153
5566,36.033
5567,35.547
5568,35.256
5569,34.739
5570,34.258
5571,34.036
5572,34.261
5573,34.447
5574,34.544
5575,34.425
5576,33.925
5577,33.186
5578,33.164
5579,33.033
5580,32.900
5581,33.186
5582,33.631
5583,33.708
5584,33.067
5585,32.394
5586,32.383
5587,32.500
5588,32.639
5589,32.981
5590,33.303
5591,33.358
5592,32.642
5593,31.456
5594,30.850
5595,30.153
5596,29.947
5597,29.989
5598,30.078
5599,30.175
5600,30.619
5601,30.108
5602,30.244
5603,30.247
5604,29.797
5605,29.764
5606,30.439
5607,30.783
5608,31.006
5609,30.425
5610,29.964
5611,29.656
5612,29.631
5613,29.586
5614,29.806
5615,29.942
5616,29.792
5617,29.581
5618,29.781
5619,29.825
5620,30.286
5621,30.411
5622,30.542
5623,30.322
5624,30.136
5625,30.106
5626,30.597
5627,30.994
5628,30.797
5629,30.311
5630,30.050
5631,29.928
5632,30.111
5633,30.186
5634,31.061
5635,31.442
5636,30.981
5637,30.556
5638,30.353
5639,30.100
5640,29.944
5641,29.797
5642,30.025
5643,29.994
5644,29.786
5645,29.628
5646,29.822
5647,29.833
5648,29.731
5649,29.419
5650,29.644
5651,29.961
5652,30.206
5653,30.603
5654,31.169
5655,31.039
5656,30.711
5657,30.119
5658,29.911
5659,29.747
5660,29.714
5661,29.917
5662,30.383
5663,30.489
5664,30.136
5665,29.742
5666,29.947
5667,30.078
5668,30.092
5669,30.425
5670,30.525
5671,30.689
5672,30.928
5673,30.983
5674,31.619
5675,31.881
5676,32.217
5677,32.172
5678,31.650
5679,31.364
5680,31.417
5681,31.347
5682,31.956
5683,32.122
5684,31.811
5685,31.472
5686,31.456
5687,31.731
5688,31.906
5689,32.042
5690,32.511
5691,32.650
5692,32.350
5693,31.983
5694,31.889
5695,31.872
5696,32.017
5697,31.886
5698,32.581
5699,32.639
5700,32.047
5701,31.614
5702,31.406
5703,31.053
5704,31.194
5705,31.094
5706,31.556
5707,31.619
5708,31.511
5709,31.617
5710,32.253
5711,32.450
5712,31.978
5713,31.364
5714,30.981
5715,30.839
5716,31.081
5717,31.675
5718,32.069
5719,32.239
5720,32.231
5721,31.889
5722,31.642
5723,31.550
5724,31.767
5725,31.981
5726,32.347
5727,32.447
5728,32.031
5729,31.536
5730,31.764
5731,31.708
5732,31.628
5733,31.792
5734,32.328
5735,32.631
5736,32.744
5737,32.878
5738,33.372
5739,33.722
5740,33.875
5741,33.675
5742,33.344
5743,33.217
5744,32.839
5745,32.689
5746,32.964
5747,32.928
5748,32.767
5749,32.950
5750,33.419
5751,33.653
5752,33.981
5753,33.903
5754,34.183
5755,34.061
5756,33.661
5757,33.450
5758,33.464
5759,33.383
5760,33.500
5761,32.986
5762,33.111
5763,33.044
5764,32.553
5765,32.369
5766,32.867
5767,32.911
5768,33.008
5769,32.983
5770,33.486
5771,33.603
5772,33.553
5773,33.517
5774,33.428
5775,33.014
5776,33.036
5777,32.847
5778,32.647
5779,32.528
5780,32.583
5781,32.489
5782,32.447
5783,32.281
5784,32.403
5785,32.231
5786,32.525
5787,32.692
5788,32.783
5789,33.083
5790,33.328
5791,33.289
5792,32.850
5793,32.403
5794,32.619
5795,32.983
5796,33.211
5797,32.953
5798,32.531
5799,32.231
5800,32.206
5801,32.119
5802,32.533
5803,32.736
5804,32.772
5805,32.406
5806,32.317
5807,32.050
5808,32.356
5809,32.317
5810,32.422
5811,32.281
5812,32.106
5813,32.164
5814,32.381
5815,32.756
5816,32.689
5817,32.339
5818,32.242
5819,31.572
5820,31.186
5821,31.119
5822,31.258
5823,31.431
5824,31.503
5825,31.064
5826,31.067
5827,30.878
5828,30.492
5829,30.267
5830,30.369
5831,30.114
5832,30.389
5833,30.153
5834,30.236
5835,29.986
5836,29.300
5837,28.861
5838,28.739
5839,28.539
5840,28.181
5841,27.892
5842,27.911
5843,28.133
5844,28.122
5845,28.303
5846,28.564
5847,28.475
5848,28.356
5849,28.025
5850,27.819
5851,27.850
5852,28.336
5853,28.900
5854,29.378
5855,29.414
5856,29.083
5857,28.481
5858,28.081
5859,27.975
5860,28.008
5861,28.122
5862,28.556
5863,28.722
5864,28.681
5865,28.467
5866,28.106
5867,27.842
5868,28.033
5869,28.225
5870,28.494
5871,28.697
5872,28.531
5873,28.244
5874,28.408
5875,28.392
5876,28.136
5877,27.731
5878,27.569
5879,27.236
5880,27.458
5881,27.489
5882,27.556
5883,27.642
5884,27.539
5885,27.317
5886,27.333
5887,27.386
5888,27.328
5889,27.203
5890,27.444
5891,27.631
5892,27.411
5893,27.492
5894,27.692
5895,27.592
5896,27.028
5897,26.856
5898,27.161
5899,27.214
5900,27.569
5901,27.719
5902,27.128
5903,27.119
5904,27.114
5905,27.094
5906,27.517
5907,27.856
5908,27.961
5909,27.661
5910,27.358
5911,27.350
5912,27.392
5913,27.394
5914,27.936
5915,28.217
5916,28.097
5917,27.856
5918,27.672
5919,27.658
5920,28.086
5921,27.919
5922,28.178
5923,28.356
5924,27.969
5925,27.631
5926,27.683
5927,27.894
5928,28.247
5929,28.164
5930,28.317
5931,28.192
5932,27.878
5933,27.711
5934,27.919
5935,28.031
5936,28.172
5937,28.097
5938,28.144
5939,28.081
5940,27.886
5941,27.939
5942,28.442
5943,28.819
5944,28.656
5945,28.408
5946,28.328
5947,28.100
5948,28.081
5949,28.144
5950,28.172
5951,28.375
5952,28.381
5953,28.369
5954,28.381
5955,28.403
5956,28.444
5957,28.619
5958,28.956
5959,29.058
5960,28.869
5961,28.536
5962,28.678
5963,28.725
5964,29.022
5965,29.286
5966,29.653
5967,30.019
5968,29.428
5969,29.236
5970,29.194
5971,29.167
5972,29.200
5973,29.031
5974,29.036
5975,29.106
5976,29.150
5977,28.981
5978,28.825
5979,28.683
5980,28.622
5981,28.486
5982,28.433
5983,28.392
5984,28.528
5985,28.561
5986,28.931
5987,29.081
5988,28.603
5989,27.986
5990,27.775
5991,27.747
5992,27.828
5993,27.803
5994,28.233
5995,28.308
5996,28.069
5997,27.914
5998,27.933
5999,27.856
6000,27.972
6001,27.953
6002,28.528
6003,28.597
6004,28.114
6005,27.911
6006,28.061
6007,28.186
6008,28.356
6009,28.203
6010,28.358
6011,28.428
6012,28.397
6013,28.342
6014,28.564
6015,28.675
6016,28.628
6017,28.600
6018,29.211
6019,29.383
6020,29.111
6021,28.714
6022,28.447
6023,28.286
6024,28.094
6025,28.008
6026,28.622
6027,28.975
6028,29.061
6029,29.183
6030,29.214
6031,29.222
6032,28.986
6033,28.725
6034,29.019
6035,29.081
6036,28.906
6037,28.764
6038,28.600
6039,28.506
6040,28.608
6041,28.467
6042,29.003
6043,28.992
6044,28.719
6045,28.458
6046,28.344
6047,28.097
6048,28.156
6049,28.211
6050,28.594
6051,28.728
6052,28.489
6053,28.278
6054,28.283
6055,28.108
6056,28.319
6057,27.978
6058,28.228
6059,28.575
6060,28.731
6061,28.739
6062,28.844
6063,28.772
6064,28.631
6065,28.558
6066,28.681
6067,28.553
6068,28.569
6069,28.664
6070,28.592
6071,28.464
6072,28.364
6073,28.039
6074,28.267
6075,28.725
6076,28.733
6077,28.581
6078,28.814
6079,29.139
6080,29.242
6081,29.083
6082,29.367
6083,29.183
6084,29.119
6085,29.228
6086,29.214
6087,29.300
6088,29.303
6089,28.703
6090,28.839
6091,28.872
6092,28.936
6093,29.125
6094,29.050
6095,28.956
6096,28.831
6097,28.597
6098,28.739
6099,28.964
6100,29.128
6101,29.014
6102,28.925
6103,29.075
6104,28.522
6105,28.233
6106,28.403
6107,28.708
6108,28.672
6109,28.275
6110,28.106
6111,28.078
6112,27.939
6113,27.667
6114,28.250
6115,28.256
6116,28.153
6117,28.172
6118,27.667
6119,27.728
6120,27.692
6121,27.944
6122,28.656
6123,28.914
6124,28.639
6125,28.086
6126,27.683
6127,27.769
6128,27.806
6129,27.800
6130,27.564
6131,27.269
6132,27.283
6133,27.272
6134,27.342
6135,27.528
6136,27.647
6137,27.450
6138,27.372
6139,27.161
6140,26.692
6141,26.183
6142,26.300
6143,26.414
6144,26.414
6145,26.114
6146,26.031
6147,25.850
6148,25.717
6149,25.728
6150,25.700
6151,25.894
6152,25.647
6153,25.094
6154,24.953
6155,25.119
6156,25.244
6157,25.308
6158,25.311
6159,25.156
6160,25.108
6161,24.922
6162,24.700
6163,24.697
6164,24.878
6165,25.047
6166,25.161
6167,25.178
6168,25.025
6169,25.050
6170,25.142
6171,25.142
6172,25.278
6173,25.569
6174,25.981
6175,26.261
6176,25.869
6177,25.400
6178,25.225
6179,25.225
6180,25.178
6181,25.428
6182,25.778
6183,25.894
6184,25.986
6185,25.911
6186,26.167
6187,26.467
6188,26.583
6189,26.497
6190,26.439
6191,26.469
6192,26.389
6193,26.097
6194,26.181
6195,26.347
6196,26.022
6197,25.722
6198,25.553
6199,25.236
6200,25.956
6201,26.189
6202,26.558
6203,26.667
6204,26.331
6205,26.031
6206,25.936
6207,25.925
6208,25.639
6209,25.575
6210,25.722
6211,25.692
6212,25.467
6213,25.231
6214,25.111
6215,25.069
6216,24.906
6217,25.017
6218,25.206
6219,25.389
6220,25.539
6221,25.694
6222,25.769
6223,25.850
6224,25.611
6225,25.436
6226,25.733
6227,25.975
6228,25.725
6229,25.458
6230,25.372
6231,25.058
6232,24.931
6233,24.772
6234,25.161
6235,25.200
6236,25.164
6237,25.444
6238,25.558
6239,25.750
6240,25.694
6241,25.636
6242,25.936
6243,26.131
6244,26.214
6245,26.239
6246,26.058
6247,26.211
6248,26.033
6249,25.850
6250,25.794
6251,25.539
6252,25.533
6253,25.539
6254,25.836
6255,25.986
6256,25.967
6257,25.842
6258,25.956
6259,26.036
6260,25.897
6261,25.639
6262,25.908
6263,26.153
6264,26.486
6265,26.286
6266,25.875
6267,25.514
6268,25.192
6269,24.875
6270,24.933
6271,25.108
6272,25.167
6273,25.022
6274,25.389
6275,25.394
6276,25.528
6277,25.531
6278,25.122
6279,25.117
6280,24.900
6281,24.728
6282,25.133
6283,25.453
6284,25.569
6285,25.658
6286,25.633
6287,25.636
6288,25.283
6289,25.036
6290,25.258
6291,25.575
6292,25.475
6293,25.442
6294,25.419
6295,25.283
6296,25.389
6297,25.350
6298,25.667
6299,25.775
6300,25.719
6301,25.717
6302,25.661
6303,25.644
6304,25.767
6305,25.919
6306,26.108
6307,26.031
6308,25.728
6309,25.531
6310,25.517
6311,25.497
6312,25.733
6313,25.311
6314,25.564
6315,25.825
6316,25.622
6317,25.550
6318,25.533
6319,25.553
6320,25.486
6321,25.231
6322,25.611
6323,25.872
6324,25.400
6325,24.961
6326,24.728
6327,24.486
6328,24.644
6329,24.561
6330,24.969
6331,25.281
6332,24.869
6333,24.556
6334,24.611
6335,24.658
6336,24.522
6337,24.175
6338,24.308
6339,24.381
6340,24.394
6341,24.522
6342,24.306
6343,24.158
6344,24.119
6345,23.947
6346,24.403
6347,24.667
6348,24.589
6349,24.672
6350,24.919
6351,25.231
6352,24.792
6353,24.567
6354,24.569
6355,24.506
6356,24.231
6357,24.061
6358,24.119
6359,23.961
6360,24.350
6361,24.397
6362,24.753
6363,24.858
6364,24.506
6365,24.328
6366,24.608
6367,24.869
6368,24.569
6369,24.467
6370,24.411
6371,24.233
6372,23.900
6373,23.717
6374,23.856
6375,24.017
6376,24.250
6377,23.994
6378,24.053
6379,24.150
6380,24.289
6381,24.528
6382,24.661
6383,24.897
6384,24.344
6385,23.708
6386,23.886
6387,24.347
6388,24.661
6389,24.794
6390,24.575
6391,24.458
6392,24.272
6393,24.114
6394,24.347
6395,24.672
6396,24.853
6397,24.728
6398,24.506
6399,24.539
6400,24.628
6401,24.486
6402,24.542
6403,24.625
6404,24.481
6405,24.197
6406,24.139
6407,24.181
6408,24.397
6409,24.289
6410,24.383
6411,24.358
6412,24.022
6413,23.789
6414,23.869
6415,23.803
6416,23.881
6417,24.000
6418,23.894
6419,23.644
6420,23.333
6421,23.292
6422,23.436
6423,23.569
6424,23.669
6425,23.156
6426,23.578
6427,23.619
6428,23.411
6429,23.269
6430,23.078
6431,23.267
6432,23.022
6433,23.025
6434,23.211
6435,23.519
6436,23.681
6437,23.531
6438,23.289
6439,23.006
6440,23.311
6441,23.261
6442,23.714
6443,23.978
6444,24.061
6445,24.064
6446,23.900
6447,24.008
6448,23.786
6449,23.556
6450,23.597
6451,23.764
6452,23.825
6453,23.950
6454,24.131
6455,24.233
6456,24.278
6457,23.861
6458,23.347
6459,23.147
6460,23.186
6461,23.261
6462,23.500
6463,23.742
6464,23.717
6465,23.517
6466,23.903
6467,24.261
6468,24.067
6469,23.800
6470,23.500
6471,23.517
6472,23.131
6473,23.114
6474,23.397
6475,23.689
6476,23.458
6477,23.142
6478,22.981
6479,22.939
6480,23.006
6481,22.822
6482,22.928
6483,23.078
6484,23.075
6485,23.200
6486,23.525
6487,23.708
6488,23.472
6489,23.419
6490,23.514
6491,23.597
6492,23.722
6493,23.756
6494,23.781
6495,23.764
6496,23.600
6497,23.414
6498,23.464
6499,23.497
6500,23.297
6501,23.189
6502,23.322
6503,23.578
6504,23.678
6505,23.603
6506,23.731
6507,23.814
6508,23.822
6509,23.631
6510,23.547
6511,23.489
6512,23.806
6513,23.747
6514,24.078
6515,23.886
6516,23.319
6517,23.069
6518,23.014
6519,23.039
6520,23.425
6521,23.517
6522,23.889
6523,23.939
6524,23.653
6525,23.619
6526,23.869
6527,24.169
6528,23.658
6529,23.358
6530,23.472
6531,23.572
6532,23.550
6533,23.742
6534,23.858
6535,24.008
6536,23.917
6537,23.717
6538,23.739
6539,23.756
6540,23.578
6541,23.583
6542,23.842
6543,24.078
6544,23.769
6545,23.719
6546,23.961
6547,24.094
6548,24.272
6549,24.281
6550,23.944
6551,23.794
6552,23.953
6553,23.861
6554,24.181
6555,24.431
6556,24.125
6557,24.142
6558,24.369
6559,24.303
6560,24.089
6561,23.678
6562,23.731
6563,23.847
6564,23.953
6565,24.294
6566,24.158
6567,24.372
