Distance_(pixels),Gray_Value
0,5.846
1,5.808
2,5.675
3,5.500
4,5.508
5,5.583
6,5.662
7,5.588
8,5.717
9,5.679
10,5.779
11,5.792
12,5.754
13,6.017
14,6.042
15,5.617
16,5.942
17,6.067
18,6.129
19,5.858
20,5.404
21,5.542
22,5.604
23,5.246
24,5.296
25,5.629
26,5.742
27,5.671
28,5.454
29,5.350
30,5.550
31,5.600
32,5.800
33,5.888
34,6.046
35,6.158
36,5.925
37,5.825
38,5.696
39,5.625
40,5.567
41,5.896
42,5.946
43,5.846
44,5.883
45,6.096
46,6.208
47,5.983
48,5.746
49,5.658
50,5.650
51,5.621
52,5.917
53,6.304
54,6.421
55,6.296
56,6.258
57,6.083
58,6.171
59,6.208
60,6.233
61,6.321
62,6.304
63,6.217
64,6.442
65,6.604
66,6.658
67,6.421
68,6.121
69,6.033
70,6.029
71,6.142
72,6.379
73,6.779
74,6.917
75,6.679
76,6.158
77,5.996
78,5.833
79,5.713
80,6.021
81,6.033
82,6.567
83,6.592
84,6.517
85,6.704
86,6.442
87,6.363
88,6.146
89,6.267
90,6.325
91,5.938
92,5.842
93,6.246
94,6.317
95,6.408
96,6.567
97,6.479
98,6.658
99,6.483
100,6.554
101,6.742
102,6.517
103,6.421
104,6.237
105,6.304
106,6.367
107,6.279
108,6.475
109,6.762
110,6.621
111,6.496
112,6.483
113,6.608
114,6.879
115,6.779
116,6.612
117,6.787
118,6.812
119,6.300
120,6.050
121,6.312
122,6.233
123,5.996
124,5.708
125,5.871
126,6.158
127,6.183
128,6.379
129,6.367
130,6.483
131,6.521
132,6.808
133,7.221
134,7.433
135,7.208
136,6.942
137,6.729
138,6.583
139,6.458
140,6.379
141,6.342
142,6.254
143,6.429
144,6.387
145,6.675
146,6.921
147,6.858
148,6.879
149,7.104
150,7.254
151,7.167
152,7.075
153,6.912
154,6.929
155,6.917
156,6.850
157,6.825
158,6.933
159,6.958
160,7.142
161,7.229
162,7.246
163,7.196
164,7.446
165,7.533
166,7.229
167,6.900
168,7.221
169,7.262
170,7.246
171,7.396
172,7.504
173,7.567
174,7.321
175,7.121
176,6.812
177,6.887
178,6.787
179,6.625
180,6.971
181,7.496
182,7.533
183,7.046
184,7.229
185,6.892
186,6.967
187,7.137
188,7.142
189,7.329
190,7.525
191,7.412
192,7.438
193,7.375
194,7.279
195,6.967
196,6.758
197,6.871
198,7.004
199,6.679
200,6.971
201,6.921
202,7.221
203,7.096
204,6.933
205,7.346
206,7.325
207,7.162
208,7.350
209,7.100
210,7.308
211,7.221
212,7.183
213,7.371
214,7.383
215,7.408
216,7.613
217,7.412
218,7.375
219,7.287
220,7.133
221,7.346
222,7.412
223,7.300
224,7.071
225,7.096
226,7.129
227,7.242
228,7.079
229,6.804
230,6.592
231,6.467
232,6.558
233,6.733
234,6.833
235,6.871
236,6.858
237,7.046
238,7.050
239,6.850
240,6.904
241,6.617
242,6.946
243,6.921
244,7.104
245,7.579
246,7.317
247,7.267
248,6.650
249,6.721
250,6.613
251,6.713
252,6.971
253,7.096
254,7.183
255,7.221
256,7.058
257,7.133
258,6.912
259,6.762
260,6.804
261,7.254
262,7.412
263,7.271
264,7.408
265,7.542
266,7.317
267,7.029
268,6.858
269,6.921
270,7.017
271,7.092
272,7.071
273,7.033
274,6.958
275,6.908
276,6.900
277,7.192
278,7.350
279,7.175
280,6.917
281,6.954
282,7.067
283,6.917
284,6.850
285,7.537
286,7.675
287,6.912
288,6.721
289,6.733
290,6.675
291,6.562
292,6.583
293,7.071
294,7.133
295,6.900
296,6.817
297,6.838
298,6.879
299,6.833
300,6.858
301,6.883
302,6.912
303,6.950
304,7.242
305,7.417
306,7.363
307,7.312
308,7.292
309,7.329
310,7.238
311,7.208
312,7.358
313,7.454
314,7.642
315,7.429
316,7.008
317,6.846
318,6.958
319,7.071
320,7.167
321,7.329
322,7.642
323,7.654
324,7.642
325,7.792
326,7.558
327,7.179
328,7.196
329,7.521
330,7.867
331,7.792
332,7.779
333,7.817
334,7.217
335,7.142
336,7.133
337,6.733
338,7.292
339,7.729
340,7.904
341,8.229
342,8.346
343,7.921
344,7.675
345,7.625
346,7.717
347,7.754
348,7.658
349,7.683
350,7.779
351,7.717
352,8.021
353,8.271
354,8.204
355,7.679
356,7.279
357,7.429
358,7.525
359,7.238
360,7.554
361,7.642
362,7.483
363,7.471
364,7.433
365,7.671
366,7.867
367,7.629
368,7.750
369,7.900
370,7.958
371,7.996
372,7.992
373,8.042
374,8.042
375,7.921
376,8.025
377,8.171
378,8.121
379,8.008
380,8.004
381,8.417
382,8.275
383,7.738
384,7.404
385,7.617
386,7.887
387,7.925
388,7.983
389,7.846
390,7.717
391,7.713
392,7.650
393,7.800
394,7.992
395,7.842
396,7.842
397,8.017
398,8.079
399,7.742
400,7.796
401,7.971
402,8.117
403,8.054
404,8.071
405,8.133
406,8.113
407,8.000
408,7.725
409,7.929
410,7.912
411,7.675
412,7.696
413,7.775
414,7.700
415,7.742
416,7.938
417,7.942
418,8.146
419,8.008
420,8.092
421,8.154
422,7.967
423,7.792
424,8.179
425,8.154
426,8.242
427,8.054
428,7.808
429,7.771
430,7.654
431,7.779
432,7.750
433,7.675
434,7.596
435,7.633
436,7.754
437,7.967
438,7.912
439,7.875
440,8.062
441,8.075
442,8.012
443,7.912
444,7.579
445,7.729
446,7.758
447,7.671
448,7.721
449,7.858
450,7.858
451,7.796
452,7.696
453,7.717
454,7.775
455,7.850
456,8.100
457,8.100
458,8.204
459,7.929
460,7.696
461,7.696
462,7.533
463,7.758
464,7.608
465,7.896
466,8.125
467,8.113
468,8.179
469,8.079
470,7.967
471,7.754
472,7.954
473,8.342
474,8.533
475,8.246
476,7.996
477,8.221
478,8.258
479,7.871
480,7.829
481,8.267
482,8.462
483,8.625
484,8.708
485,8.708
486,8.508
487,8.146
488,8.033
489,8.308
490,8.525
491,8.600
492,8.488
493,8.488
494,8.108
495,7.983
496,7.846
497,8.033
498,8.163
499,7.963
500,7.958
501,8.021
502,8.087
503,8.188
504,7.871
505,8.146
506,8.208
507,8.008
508,7.787
509,8.113
510,8.258
511,8.346
512,8.246
513,7.946
514,7.713
515,7.613
516,8.196
517,8.783
518,9.008
519,8.942
520,8.512
521,8.283
522,8.133
523,8.071
524,8.029
525,8.254
526,8.262
527,8.137
528,8.250
529,8.387
530,8.354
531,7.942
532,7.463
533,7.425
534,7.613
535,7.471
536,7.771
537,8.104
538,8.517
539,8.529
540,8.188
541,7.879
542,7.692
543,7.596
544,7.525
545,8.279
546,8.708
547,8.521
548,8.350
549,8.425
550,8.288
551,7.762
552,7.942
553,8.025
554,8.383
555,8.246
556,8.067
557,8.479
558,8.562
559,8.250
560,8.312
561,8.238
562,8.225
563,8.175
564,7.900
565,7.900
566,8.012
567,7.863
568,8.154
569,8.408
570,8.613
571,8.529
572,8.317
573,8.029
574,7.679
575,7.321
576,7.404
577,7.492
578,7.804
579,8.067
580,8.113
581,8.163
582,8.096
583,7.725
584,7.858
585,7.738
586,7.958
587,7.996
588,8.221
589,8.608
590,8.371
591,8.458
592,8.221
593,7.996
594,7.867
595,7.817
596,7.883
597,8.083
598,8.158
599,8.312
600,8.325
601,8.262
602,8.108
603,7.621
604,7.433
605,7.608
606,7.629
607,7.567
608,7.925
609,8.163
610,8.658
611,8.621
612,8.196
613,8.046
614,8.258
615,8.233
616,8.250
617,8.321
618,8.475
619,8.517
620,8.275
621,8.267
622,8.158
623,7.971
624,8.246
625,8.658
626,8.887
627,8.725
628,8.821
629,9.158
630,9.379
631,9.204
632,8.808
633,9.058
634,9.275
635,9.000
636,8.750
637,8.850
638,8.950
639,8.562
640,8.613
641,8.562
642,8.663
643,8.525
644,8.675
645,9.004
646,8.942
647,8.742
648,8.817
649,8.679
650,8.558
651,8.383
652,8.483
653,8.846
654,8.675
655,8.750
656,8.783
657,9.046
658,9.471
659,9.312
660,9.054
661,9.146
662,9.087
663,8.738
664,8.358
665,8.546
666,8.700
667,8.712
668,8.700
669,8.637
670,8.725
671,8.738
672,8.846
673,8.933
674,9.258
675,9.275
676,9.267
677,9.442
678,9.446
679,9.125
680,8.896
681,8.929
682,8.971
683,8.871
684,8.887
685,8.938
686,9.117
687,9.267
688,9.454
689,9.529
690,9.629
691,9.654
692,10.033
693,10.492
694,10.533
695,10.208
696,10.171
697,10.421
698,10.267
699,9.992
700,9.688
701,9.387
702,9.079
703,9.129
704,9.371
705,9.521
706,9.825
707,9.950
708,10.113
709,10.300
710,10.279
711,9.929
712,9.825
713,10.150
714,10.454
715,10.579
716,10.613
717,10.650
718,10.625
719,10.508
720,10.438
721,10.608
722,10.742
723,10.571
724,10.542
725,10.742
726,10.975
727,10.983
728,11.033
729,10.938
730,11.133
731,11.029
732,10.812
733,10.879
734,10.625
735,10.567
736,10.446
737,10.921
738,11.379
739,11.279
740,10.988
741,11.087
742,11.104
743,10.879
744,10.904
745,10.979
746,11.154
747,11.192
748,11.254
749,11.625
750,11.742
751,11.671
752,11.342
753,11.217
754,11.208
755,11.029
756,11.087
757,11.433
758,11.692
759,11.654
760,11.271
761,11.333
762,11.337
763,11.396
764,11.375
765,11.663
766,11.783
767,11.571
768,11.654
769,11.629
770,11.621
771,11.308
772,11.192
773,11.075
774,10.858
775,10.808
776,11.125
777,11.387
778,11.604
779,11.504
780,11.012
781,10.762
782,10.954
783,11.104
784,11.508
785,11.596
786,11.642
787,11.604
788,11.529
789,11.579
790,11.592
791,11.254
792,10.913
793,11.196
794,11.363
795,11.512
796,11.700
797,11.938
798,12.196
799,12.229
800,12.092
801,12.075
802,12.204
803,12.154
804,12.033
805,12.312
806,12.450
807,12.167
808,12.458
809,12.392
810,12.475
811,12.433
812,12.529
813,12.408
814,12.146
815,12.113
816,12.392
817,12.712
818,12.850
819,12.550
820,12.321
821,12.250
822,12.346
823,12.404
824,12.083
825,11.925
826,11.812
827,11.904
828,12.367
829,12.517
830,12.425
831,12.342
832,12.717
833,12.867
834,13.246
835,13.188
836,13.433
837,13.621
838,13.442
839,13.221
840,12.762
841,12.675
842,12.738
843,12.696
844,12.683
845,13.008
846,13.483
847,13.433
848,13.904
849,13.812
850,13.967
851,14.262
852,14.583
853,15.154
854,15.400
855,15.021
856,14.354
857,13.725
858,13.425
859,13.325
860,13.492
861,14.062
862,14.442
863,14.212
864,14.183
865,14.163
866,14.321
867,14.371
868,14.812
869,15.017
870,14.700
871,14.442
872,14.254
873,14.279
874,14.342
875,14.304
876,14.104
877,13.854
878,13.604
879,13.462
880,13.467
881,13.404
882,13.650
883,13.521
884,13.717
885,14.192
886,14.188
887,14.154
888,13.650
889,13.546
890,13.729
891,13.842
892,13.817
893,13.671
894,13.688
895,13.696
896,13.613
897,13.567
898,13.562
899,13.608
900,13.750
901,14.050
902,14.262
903,14.104
904,13.825
905,13.879
906,13.812
907,13.596
908,13.517
909,13.804
910,14.025
911,13.733
912,13.512
913,13.175
914,12.958
915,12.867
916,13.004
917,13.308
918,13.658
919,13.683
920,13.767
921,13.396
922,13.354
923,13.404
924,13.467
925,13.608
926,13.683
927,13.567
928,14.021
929,14.417
930,14.938
931,14.450
932,14.158
933,13.988
934,13.775
935,13.617
936,13.596
937,14.079
938,14.354
939,14.175
940,14.054
941,14.204
942,14.454
943,14.633
944,15.196
945,15.558
946,16.025
947,15.708
948,15.567
949,16.075
950,16.342
951,16.163
952,16.075
953,15.938
954,16.100
955,16.175
956,16.362
957,16.796
958,16.763
959,16.825
960,16.742
961,17.062
962,17.633
963,17.658
964,17.592
965,17.883
966,18.279
967,18.446
968,18.554
969,18.562
970,18.717
971,18.104
972,17.779
973,17.958
974,18.042
975,18.263
976,17.954
977,17.712
978,17.783
979,17.550
980,17.837
981,18.304
982,18.421
983,18.442
984,18.163
985,18.100
986,18.279
987,18.042
988,18.087
989,18.508
990,18.642
991,18.562
992,18.688
993,18.663
994,19.225
995,18.896
996,18.525
997,18.308
998,17.700
999,17.550
1000,17.812
1001,17.379
1002,17.579
1003,17.700
1004,18.067
1005,18.450
1006,18.663
1007,18.725
1008,18.571
1009,18.800
1010,19.058
1011,18.712
1012,18.767
1013,18.708
1014,18.292
1015,18.121
1016,18.196
1017,18.358
1018,18.467
1019,18.413
1020,18.337
1021,18.400
1022,18.242
1023,18.062
1024,18.121
1025,18.404
1026,18.858
1027,18.775
1028,18.346
1029,18.133
1030,17.992
1031,17.575
1032,17.467
1033,17.167
1034,17.267
1035,17.629
1036,17.954
1037,18.562
1038,19.242
1039,19.288
1040,19.429
1041,19.292
1042,19.021
1043,18.333
1044,17.837
1045,17.529
1046,17.300
1047,17.462
1048,17.371
1049,17.792
1050,18.079
1051,17.883
1052,17.758
1053,17.721
1054,17.875
1055,17.679
1056,17.700
1057,18.033
1058,18.571
1059,18.688
1060,18.763
1061,18.583
1062,18.275
1063,18.021
1064,17.692
1065,17.596
1066,17.929
1067,17.871
1068,17.804
1069,17.975
1070,17.958
1071,17.867
1072,18.121
1073,18.217
1074,18.517
1075,18.388
1076,18.717
1077,19.067
1078,19.121
1079,19.067
1080,18.683
1081,18.513
1082,18.454
1083,18.008
1084,17.913
1085,18.258
1086,18.329
1087,18.546
1088,18.600
1089,18.604
1090,18.700
1091,18.679
1092,18.858
1093,18.792
1094,18.821
1095,18.812
1096,18.675
1097,18.758
1098,18.812
1099,18.717
1100,18.788
1101,18.708
1102,18.533
1103,18.175
1104,18.513
1105,18.788
1106,19.112
1107,18.646
1108,18.546
1109,18.796
1110,18.800
1111,18.542
1112,18.429
1113,18.758
1114,19.029
1115,18.675
1116,18.829
1117,18.617
1118,18.846
1119,18.717
1120,18.638
1121,18.612
1122,18.667
1123,18.421
1124,18.671
1125,19.367
1126,19.517
1127,19.083
1128,18.538
1129,18.771
1130,18.917
1131,18.408
1132,17.854
1133,17.696
1134,18.013
1135,18.329
1136,18.846
1137,19.233
1138,19.504
1139,19.112
1140,18.663
1141,18.508
1142,18.633
1143,18.487
1144,18.450
1145,18.717
1146,18.546
1147,18.175
1148,18.029
1149,18.021
1150,17.900
1151,17.837
1152,18.263
1153,18.312
1154,18.646
1155,18.971
1156,19.454
1157,19.500
1158,19.275
1159,18.896
1160,18.421
1161,18.333
1162,18.571
1163,18.987
1164,19.288
1165,19.138
1166,19.096
1167,19.008
1168,18.929
1169,19.075
1170,19.392
1171,19.229
1172,18.975
1173,18.929
1174,18.967
1175,18.804
1176,18.746
1177,18.558
1178,18.500
1179,18.433
1180,18.604
1181,18.729
1182,18.796
1183,18.788
1184,18.996
1185,19.062
1186,19.267
1187,19.013
1188,18.904
1189,19.163
1190,19.217
1191,18.892
1192,18.688
1193,18.508
1194,18.508
1195,18.413
1196,18.475
1197,18.642
1198,18.846
1199,18.625
1200,18.513
1201,18.479
1202,18.600
1203,18.600
1204,18.558
1205,18.896
1206,18.800
1207,18.296
1208,18.158
1209,17.854
1210,18.308
1211,18.267
1212,18.108
1213,18.225
1214,18.033
1215,17.617
1216,17.921
1217,18.192
1218,18.621
1219,18.354
1220,18.167
1221,17.946
1222,17.638
1223,17.429
1224,16.962
1225,17.179
1226,17.158
1227,16.958
1228,16.758
1229,16.604
1230,16.658
1231,16.550
1232,16.862
1233,16.750
1234,16.854
1235,16.583
1236,16.462
1237,16.517
1238,16.333
1239,16.100
1240,16.296
1241,16.579
1242,16.950
1243,16.763
1244,16.179
1245,15.825
1246,15.933
1247,15.871
1248,15.833
1249,16.062
1250,16.321
1251,16.196
1252,16.254
1253,16.508
1254,16.650
1255,16.308
1256,16.038
1257,15.913
1258,15.988
1259,15.917
1260,16.108
1261,16.742
1262,17.475
1263,17.779
1264,17.333
1265,17.017
1266,16.729
1267,16.371
1268,16.413
1269,16.771
1270,17.138
1271,17.050
1272,16.854
1273,16.996
1274,17.125
1275,16.958
1276,16.746
1277,17.042
1278,17.371
1279,17.092
1280,17.046
1281,17.217
1282,17.362
1283,17.183
1284,17.038
1285,16.929
1286,16.721
1287,16.388
1288,16.092
1289,15.946
1290,16.050
1291,16.146
1292,16.388
1293,16.642
1294,17.308
1295,17.608
1296,18.062
1297,17.708
1298,17.633
1299,17.333
1300,17.133
1301,17.358
1302,17.596
1303,17.487
1304,17.033
1305,16.617
1306,16.608
1307,16.583
1308,16.733
1309,17.129
1310,17.496
1311,17.271
1312,17.208
1313,17.321
1314,17.421
1315,17.288
1316,17.229
1317,17.254
1318,17.125
1319,16.729
1320,16.163
1321,15.767
1322,15.817
1323,16.025
1324,16.188
1325,16.450
1326,16.737
1327,16.800
1328,16.808
1329,17.167
1330,17.354
1331,17.212
1332,17.133
1333,17.300
1334,17.421
1335,16.983
1336,16.638
1337,16.550
1338,16.688
1339,16.196
1340,15.804
1341,15.692
1342,15.767
1343,16.021
1344,16.800
1345,17.208
1346,17.875
1347,17.846
1348,17.875
1349,18.246
1350,18.275
1351,17.533
1352,17.225
1353,16.942
1354,16.967
1355,16.858
1356,16.821
1357,17.004
1358,17.108
1359,16.812
1360,16.538
1361,15.946
1362,15.992
1363,15.942
1364,15.904
1365,16.325
1366,16.779
1367,16.663
1368,16.483
1369,16.550
1370,16.596
1371,16.337
1372,15.842
1373,15.617
1374,15.633
1375,15.583
1376,15.842
1377,15.800
1378,16.108
1379,15.975
1380,15.550
1381,15.525
1382,15.733
1383,15.667
1384,15.438
1385,15.479
1386,15.462
1387,15.525
1388,15.458
1389,15.433
1390,15.346
1391,15.221
1392,15.333
1393,15.571
1394,16.029
1395,16.217
1396,16.433
1397,16.517
1398,16.288
1399,15.779
1400,15.829
1401,15.688
1402,15.587
1403,15.654
1404,15.750
1405,15.812
1406,15.817
1407,15.629
1408,15.846
1409,15.729
1410,15.229
1411,15.154
1412,15.600
1413,15.992
1414,16.479
1415,16.417
1416,16.250
1417,15.946
1418,15.842
1419,15.833
1420,15.700
1421,15.917
1422,15.863
1423,15.488
1424,15.679
1425,15.833
1426,16.104
1427,16.062
1428,15.871
1429,15.646
1430,15.529
1431,15.229
1432,15.337
1433,15.375
1434,15.525
1435,15.729
1436,15.854
1437,16.008
1438,15.812
1439,15.775
1440,15.900
1441,15.900
1442,16.308
1443,16.100
1444,15.858
1445,16.017
1446,16.254
1447,15.954
1448,15.683
1449,15.775
1450,15.750
1451,15.425
1452,15.500
1453,15.929
1454,15.758
1455,15.654
1456,15.512
1457,15.442
1458,15.383
1459,15.225
1460,15.238
1461,15.279
1462,15.529
1463,15.613
1464,15.758
1465,16.042
1466,16.408
1467,16.442
1468,16.062
1469,15.863
1470,15.567
1471,15.354
1472,15.354
1473,15.196
1474,15.346
1475,15.363
1476,15.396
1477,15.233
1478,14.825
1479,14.758
1480,14.562
1481,14.596
1482,15.104
1483,15.446
1484,15.533
1485,16.225
1486,16.629
1487,16.158
1488,15.558
1489,15.329
1490,15.337
1491,15.379
1492,15.596
1493,15.708
1494,16.046
1495,15.988
1496,15.988
1497,16.054
1498,15.988
1499,15.854
1500,15.688
1501,15.892
1502,15.800
1503,15.654
1504,15.342
1505,15.200
1506,16.342
1507,16.167
1508,15.796
1509,15.954
1510,15.229
1511,14.696
1512,14.833
1513,14.442
1514,14.729
1515,15.121
1516,15.154
1517,15.746
1518,16.087
1519,15.633
1520,14.988
1521,14.896
1522,14.829
1523,14.913
1524,15.267
1525,15.596
1526,15.567
1527,15.425
1528,15.425
1529,15.271
1530,15.454
1531,15.300
1532,15.088
1533,15.008
1534,14.929
1535,15.092
1536,15.075
1537,15.158
1538,15.642
1539,15.688
1540,15.358
1541,15.379
1542,15.288
1543,15.262
1544,15.279
1545,15.558
1546,15.762
1547,15.454
1548,15.246
1549,15.521
1550,15.767
1551,15.733
1552,15.679
1553,15.575
1554,15.458
1555,15.229
1556,15.175
1557,15.213
1558,15.387
1559,15.250
1560,15.050
1561,15.071
1562,15.029
1563,14.879
1564,14.954
1565,15.383
1566,15.654
1567,15.721
1568,15.975
1569,16.196
1570,16.696
1571,17.117
1572,17.417
1573,17.725
1574,17.842
1575,17.688
1576,17.108
1577,17.104
1578,17.171
1579,17.379
1580,17.587
1581,17.879
1582,18.087
1583,18.133
1584,18.096
1585,18.587
1586,18.979
1587,19.071
1588,19.471
1589,19.954
1590,20.179
1591,20.129
1592,19.767
1593,19.913
1594,20.321
1595,20.062
1596,19.704
1597,20.100
1598,20.604
1599,20.333
1600,20.017
1601,19.663
1602,19.571
1603,19.754
1604,19.892
1605,20.133
1606,20.392
1607,20.429
1608,20.333
1609,20.317
1610,20.433
1611,20.383
1612,20.483
1613,20.833
1614,21.296
1615,21.367
1616,21.967
1617,21.992
1618,22.425
1619,22.554
1620,22.783
1621,23.154
1622,23.388
1623,23.033
1624,23.058
1625,23.425
1626,23.750
1627,23.379
1628,22.833
1629,22.688
1630,22.992
1631,23.033
1632,23.383
1633,23.471
1634,23.746
1635,23.596
1636,23.450
1637,23.667
1638,24.046
1639,24.171
1640,24.458
1641,24.842
1642,25.471
1643,25.458
1644,25.258
1645,25.288
1646,25.525
1647,25.079
1648,24.654
1649,24.633
1650,25.087
1651,25.471
1652,26.104
1653,26.650
1654,26.971
1655,27.163
1656,27.525
1657,27.504
1658,27.896
1659,27.054
1660,26.071
1661,25.475
1662,24.892
1663,24.700
1664,25.054
1665,25.508
1666,26.354
1667,26.479
1668,26.721
1669,27.379
1670,27.558
1671,27.442
1672,27.121
1673,26.650
1674,26.575
1675,26.538
1676,26.638
1677,26.875
1678,27.400
1679,27.317
1680,27.233
1681,27.458
1682,28.004
1683,27.958
1684,28.329
1685,28.917
1686,29.283
1687,29.225
1688,28.788
1689,28.829
1690,28.725
1691,28.283
1692,27.958
1693,27.875
1694,28.021
1695,28.050
1696,28.150
1697,28.496
1698,29.196
1699,29.142
1700,29.121
1701,29.717
1702,30.562
1703,31.188
1704,31.683
1705,31.913
1706,32.188
1707,31.429
1708,30.913
1709,30.542
1710,30.117
1711,29.788
1712,29.538
1713,29.296
1714,29.092
1715,29.038
1716,29.188
1717,29.008
1718,29.258
1719,29.658
1720,30.254
1721,31.267
1722,32.067
1723,31.904
1724,31.958
1725,32.025
1726,32.579
1727,32.925
1728,33.958
1729,34.425
1730,34.717
1731,33.883
1732,32.917
1733,32.271
1734,32.196
1735,32.146
1736,32.396
1737,32.708
1738,32.879
1739,32.767
1740,32.767
1741,32.692
1742,32.487
1743,31.950
1744,32.375
1745,32.271
1746,32.829
1747,32.854
1748,32.883
1749,33.367
1750,33.792
1751,33.125
1752,32.404
1753,32.017
1754,31.717
1755,31.429
1756,31.504
1757,31.608
1758,31.496
1759,31.358
1760,31.375
1761,31.846
1762,32.458
1763,32.354
1764,32.550
1765,32.804
1766,33.058
1767,33.267
1768,34.058
1769,34.600
1770,35.429
1771,36.033
1772,37.017
1773,38.383
1774,39.333
1775,39.346
1776,38.792
1777,38.483
1778,38.333
1779,38.142
1780,38.346
1781,39.013
1782,39.642
1783,39.196
1784,38.671
1785,37.650
1786,37.200
1787,36.567
1788,36.083
1789,36.108
1790,36.625
1791,36.946
1792,37.879
1793,38.612
1794,39.429
1795,39.213
1796,38.812
1797,38.717
1798,39.000
1799,38.996
1800,39.200
1801,39.208
1802,39.796
1803,39.354
1804,38.567
1805,38.763
1806,39.050
1807,38.350
1808,37.754
1809,37.346
1810,37.213
1811,37.179
1812,37.588
1813,38.133
1814,38.842
1815,38.929
1816,39.475
1817,39.975
1818,40.592
1819,40.246
1820,39.896
1821,40.400
1822,41.183
1823,41.571
1824,41.487
1825,41.571
1826,42.379
1827,42.583
1828,43.162
1829,43.771
1830,43.775
1831,43.983
1832,43.592
1833,43.900
1834,44.121
1835,43.629
1836,43.292
1837,43.175
1838,43.142
1839,43.075
1840,43.092
1841,42.600
1842,43.037
1843,42.875
1844,42.650
1845,42.875
1846,43.033
1847,42.667
1848,42.525
1849,41.742
1850,41.446
1851,41.442
1852,41.737
1853,41.850
1854,42.200
1855,42.333
1856,42.300
1857,42.479
1858,42.862
1859,42.846
1860,43.071
1861,43.171
1862,42.996
1863,42.213
1864,41.188
1865,39.675
1866,38.958
1867,39.008
1868,40.088
1869,40.879
1870,41.421
1871,42.112
1872,42.733
1873,42.942
1874,44.171
1875,43.479
1876,42.250
1877,42.413
1878,42.342
1879,42.154
1880,41.750
1881,41.250
1882,41.079
1883,40.787
1884,40.817
1885,41.596
1886,42.671
1887,43.312
1888,44.438
1889,44.004
1890,44.112
1891,43.329
1892,42.671
1893,42.004
1894,41.629
1895,41.779
1896,42.196
1897,42.450
1898,42.800
1899,42.792
1900,43.350
1901,44.046
1902,44.350
1903,44.579
1904,44.575
1905,44.854
1906,45.425
1907,45.117
1908,44.821
1909,44.933
1910,44.975
1911,44.708
1912,44.271
1913,43.496
1914,43.500
1915,43.296
1916,43.033
1917,42.825
1918,42.867
1919,43.108
1920,44.079
1921,44.292
1922,44.854
1923,45.096
1924,45.367
1925,46.000
1926,46.704
1927,46.842
1928,46.783
1929,46.479
1930,46.479
1931,46.138
1932,45.396
1933,45.071
1934,45.221
1935,44.750
1936,44.942
1937,45.013
1938,45.025
1939,45.071
1940,45.492
1941,46.162
1942,46.642
1943,46.750
1944,46.833
1945,46.817
1946,46.958
1947,46.592
1948,46.158
1949,45.979
1950,45.775
1951,45.062
1952,44.358
1953,43.167
1954,42.771
1955,42.942
1956,43.871
1957,44.987
1958,45.646
1959,45.883
1960,46.058
1961,46.154
1962,46.996
1963,46.154
1964,45.042
1965,44.500
1966,44.004
1967,44.108
1968,44.008
1969,44.133
1970,44.433
1971,44.946
1972,45.825
1973,46.621
1974,47.258
1975,47.150
1976,47.167
1977,47.092
1978,46.912
1979,45.996
1980,45.492
1981,45.254
1982,45.371
1983,45.233
1984,45.425
1985,44.742
1986,44.725
1987,44.612
1988,44.971
1989,45.329
1990,45.521
1991,45.621
1992,45.342
1993,46.029
1994,46.996
1995,47.037
1996,46.688
1997,46.758
1998,46.704
1999,46.358
2000,46.138
2001,45.792
2002,45.358
2003,45.467
2004,45.562
2005,45.371
2006,44.954
2007,44.083
2008,43.867
2009,43.092
2010,42.987
2011,43.325
2012,44.292
2013,45.862
2014,46.862
2015,46.642
2016,45.525
2017,44.996
2018,44.892
2019,45.362
2020,46.513
2021,47.533
2022,47.925
2023,47.362
2024,46.312
2025,45.892
2026,46.046
2027,45.800
2028,45.350
2029,45.792
2030,46.521
2031,46.029
2032,45.625
2033,45.696
2034,45.783
2035,45.992
2036,46.221
2037,46.379
2038,46.796
2039,46.717
2040,46.633
2041,46.704
2042,47.025
2043,46.858
2044,46.463
2045,46.021
2046,45.783
2047,45.246
2048,44.800
2049,44.283
2050,44.354
2051,44.904
2052,46.246
2053,47.758
2054,48.912
2055,49.000
2056,47.746
2057,47.325
2058,47.196
2059,46.583
2060,46.037
2061,45.533
2062,45.508
2063,45.188
2064,44.650
2065,44.250
2066,44.321
2067,43.746
2068,43.388
2069,43.737
2070,44.388
2071,44.692
2072,45.062
2073,45.138
2074,45.421
2075,45.392
2076,45.192
2077,45.254
2078,45.362
2079,44.400
2080,43.796
2081,43.021
2082,43.083
2083,43.562
2084,44.000
2085,44.896
2086,45.650
2087,45.454
2088,45.433
2089,45.754
2090,46.675
2091,46.188
2092,45.054
2093,44.317
2094,43.888
2095,43.388
2096,43.388
2097,43.875
2098,44.546
2099,44.304
2100,44.188
2101,44.662
2102,45.267
2103,45.242
2104,44.838
2105,44.804
2106,44.533
2107,43.496
2108,42.204
2109,41.013
2110,40.192
2111,39.638
2112,39.483
2113,39.146
2114,39.196
2115,38.750
2116,38.600
2117,39.071
2118,39.667
2119,40.412
2120,40.633
2121,41.108
2122,41.746
2123,41.617
2124,41.654
2125,42.067
2126,42.017
2127,41.696
2128,40.925
2129,40.504
2130,40.221
2131,39.617
2132,39.100
2133,39.092
2134,39.146
2135,38.879
2136,38.946
2137,39.258
2138,40.362
2139,39.642
2140,38.425
2141,38.067
2142,37.500
2143,37.412
2144,38.138
2145,38.662
2146,39.588
2147,39.271
2148,38.908
2149,38.888
2150,38.733
2151,38.225
2152,37.717
2153,37.475
2154,37.875
2155,37.671
2156,37.162
2157,36.792
2158,36.362
2159,35.779
2160,35.871
2161,35.508
2162,35.537
2163,35.508
2164,35.454
2165,36.092
2166,37.000
2167,36.479
2168,35.150
2169,33.879
2170,33.042
2171,32.758
2172,32.737
2173,33.258
2174,33.854
2175,33.817
2176,33.896
2177,33.938
2178,34.075
2179,33.575
2180,32.458
2181,31.675
2182,31.321
2183,30.558
2184,30.250
2185,29.683
2186,29.388
2187,28.650
2188,28.125
2189,27.688
2190,27.271
2191,26.821
2192,26.725
2193,26.817
2194,27.404
2195,27.288
2196,26.942
2197,26.783
2198,26.604
2199,25.958
2200,25.633
2201,25.692
2202,26.075
2203,26.304
2204,26.517
2205,27.000
2206,27.183
2207,27.204
2208,27.204
2209,27.413
2210,28.150
2211,28.192
2212,27.979
2213,28.479
2214,28.721
2215,28.354
2216,27.612
2217,27.000
2218,27.104
2219,26.871
2220,26.800
2221,26.971
2222,26.913
2223,27.058
2224,27.454
2225,27.337
2226,27.962
2227,27.862
2228,27.442
2229,27.058
2230,26.879
2231,26.625
2232,26.500
2233,26.550
2234,27.004
2235,26.442
2236,25.237
2237,24.154
2238,23.296
2239,23.217
2240,24.346
2241,25.375
2242,26.904
2243,26.896
2244,26.171
2245,26.112
2246,25.788
2247,25.067
2248,24.558
2249,23.825
2250,23.875
2251,23.575
2252,23.571
2253,23.658
2254,23.217
2255,23.142
2256,22.733
2257,22.513
2258,22.742
2259,22.700
2260,22.562
2261,22.454
2262,22.138
2263,22.200
2264,22.267
2265,22.062
2266,21.858
2267,21.983
2268,21.950
2269,21.829
2270,21.717
2271,21.550
2272,21.400
2273,21.650
2274,22.175
2275,22.312
2276,21.958
2277,21.633
2278,21.337
2279,20.967
2280,20.725
2281,20.942
2282,21.075
2283,21.171
2284,21.058
2285,20.983
2286,20.538
2287,20.267
2288,20.358
2289,19.896
2290,19.879
2291,19.842
2292,19.517
2293,19.858
2294,20.133
2295,19.708
2296,19.571
2297,19.425
2298,19.429
2299,19.354
2300,18.992
2301,18.875
2302,18.962
2303,18.992
2304,18.779
2305,18.896
2306,19.058
2307,19.104
2308,18.929
2309,18.517
2310,18.096
2311,17.775
2312,17.667
2313,17.842
2314,18.342
2315,18.346
2316,18.242
2317,18.038
2318,17.792
2319,17.750
2320,17.804
2321,17.708
2322,17.804
2323,17.800
2324,17.983
2325,18.221
2326,18.250
2327,18.388
2328,17.737
2329,17.629
2330,17.654
2331,17.525
2332,17.267
2333,17.288
2334,17.467
2335,17.417
2336,17.346
2337,17.292
2338,17.417
2339,17.417
2340,17.721
2341,17.908
2342,18.083
2343,18.067
2344,17.517
2345,17.425
2346,17.533
2347,17.608
2348,17.646
2349,17.746
2350,17.929
2351,17.929
2352,18.112
2353,18.138
2354,18.154
2355,18.337
2356,18.629
2357,18.596
2358,18.492
2359,18.612
2360,18.554
2361,18.596
2362,18.517
2363,18.633
2364,18.892
2365,19.104
2366,19.208
2367,19.337
2368,19.446
2369,19.513
2370,19.692
2371,19.708
2372,19.913
2373,20.708
2374,21.371
2375,21.279
2376,20.908
2377,20.667
2378,20.754
2379,21.129
2380,21.417
2381,21.679
2382,21.650
2383,21.717
2384,21.817
2385,22.062
2386,22.296
2387,22.279
2388,22.375
2389,22.413
2390,22.529
2391,22.800
2392,22.858
2393,23.229
2394,24.154
2395,24.554
2396,24.600
2397,24.700
2398,24.608
2399,24.679
2400,24.837
2401,25.100
2402,25.621
2403,25.725
2404,25.550
2405,25.487
2406,25.746
2407,25.817
2408,25.375
2409,25.587
2410,25.775
2411,26.492
2412,28.000
2413,29.229
2414,30.621
2415,31.750
2416,33.062
2417,33.838
2418,35.200
2419,35.333
2420,35.258
2421,35.463
2422,35.242
2423,34.525
2424,34.142
2425,33.742
2426,33.508
2427,33.508
2428,33.692
2429,33.846
2430,33.771
2431,33.883
2432,34.892
2433,36.033
2434,37.446
2435,38.042
2436,38.342
2437,38.908
2438,39.112
2439,38.354
2440,37.800
2441,37.042
2442,36.642
2443,36.763
2444,37.154
2445,37.608
2446,38.367
2447,39.342
2448,40.708
2449,41.950
2450,43.154
2451,43.317
2452,43.433
2453,43.283
2454,43.504
2455,43.654
2456,44.254
2457,44.650
2458,45.537
2459,44.717
2460,43.917
2461,43.371
2462,42.375
2463,42.567
2464,42.975
2465,42.700
2466,43.300
2467,43.467
2468,44.121
2469,45.275
2470,46.425
2471,46.779
2472,46.812
2473,46.746
2474,47.379
2475,47.108
2476,46.996
2477,46.858
2478,46.529
2479,46.708
2480,46.808
2481,47.188
2482,48.008
2483,48.221
2484,48.546
2485,48.425
2486,48.521
2487,49.208
2488,50.463
2489,51.463
2490,52.500
2491,52.392
2492,52.150
2493,52.504
2494,52.737
2495,52.725
2496,53.017
2497,53.250
2498,54.042
2499,54.833
2500,55.408
2501,55.729
2502,56.138
2503,55.604
2504,55.633
2505,54.833
2506,54.033
2507,52.971
2508,52.496
2509,52.075
2510,51.950
2511,52.271
2512,53.400
2513,54.067
2514,55.017
2515,54.921
2516,54.737
2517,54.521
2518,54.375
2519,54.354
2520,54.888
2521,55.304
2522,56.479
2523,56.829
2524,57.375
2525,58.425
2526,59.271
2527,59.537
2528,59.792
2529,59.508
2530,59.579
2531,59.983
2532,60.621
2533,61.604
2534,62.950
2535,63.267
2536,63.275
2537,63.567
2538,64.042
2539,63.604
2540,62.975
2541,63.104
2542,64.233
2543,64.871
2544,65.054
2545,64.408
2546,63.700
2547,63.883
2548,65.688
2549,67.492
2550,68.629
2551,69.812
2552,70.400
2553,72.162
2554,74.883
2555,74.983
2556,73.875
2557,73.408
2558,72.800
2559,72.554
2560,73.358
2561,74.150
2562,74.858
2563,74.325
2564,73.037
2565,71.246
2566,69.983
2567,69.679
2568,70.262
2569,70.871
2570,72.100
2571,72.708
2572,73.421
2573,74.300
2574,74.754
2575,75.046
2576,75.150
2577,74.900
2578,75.300
2579,75.096
2580,74.912
2581,75.221
2582,75.829
2583,75.358
2584,74.996
2585,75.233
2586,76.054
2587,77.633
2588,79.029
2589,79.358
2590,79.133
2591,78.271
2592,77.479
2593,76.729
2594,76.700
2595,76.771
2596,77.296
2597,77.904
2598,78.408
2599,79.575
2600,80.592
2601,81.300
2602,82.354
2603,82.033
2604,81.379
2605,80.933
2606,80.858
2607,80.808
2608,81.338
2609,82.938
2610,84.504
2611,84.942
2612,84.508
2613,83.671
2614,83.246
2615,82.333
2616,81.579
2617,81.617
2618,82.779
2619,83.887
2620,85.121
2621,85.942
2622,86.046
2623,85.896
2624,85.275
2625,85.312
2626,86.158
2627,86.483
2628,87.021
2629,88.450
2630,89.787
2631,89.475
2632,87.679
2633,85.879
2634,85.154
2635,84.796
2636,84.904
2637,85.933
2638,87.042
2639,87.767
2640,87.758
2641,88.092
2642,89.192
2643,89.654
2644,89.958
2645,89.588
2646,88.408
2647,88.204
2648,89.258
2649,90.238
2650,91.596
2651,91.042
2652,89.421
2653,88.529
2654,88.642
2655,89.133
2656,90.329
2657,92.854
2658,95.929
2659,96.775
2660,95.996
2661,94.137
2662,91.213
2663,88.833
2664,88.463
2665,87.958
2666,89.017
2667,89.746
2668,90.475
2669,92.646
2670,95.046
2671,95.921
2672,96.287
2673,96.463
2674,96.762
2675,96.383
2676,95.733
2677,96.496
2678,97.287
2679,96.650
2680,96.304
2681,96.675
2682,97.988
2683,98.108
2684,97.833
2685,98.029
2686,98.238
2687,99.762
2688,101.642
2689,103.842
2690,106.108
2691,106.246
2692,105.363
2693,104.208
2694,103.312
2695,103.379
2696,104.342
2697,105.262
2698,105.404
2699,105.088
2700,104.404
2701,104.129
2702,104.750
2703,105.096
2704,105.725
2705,106.229
2706,107.142
2707,107.267
2708,107.042
2709,107.238
2710,107.688
2711,107.125
2712,105.946
2713,105.642
2714,105.946
2715,107.242
2716,109.137
2717,112.562
2718,116.025
2719,117.492
2720,116.896
2721,116.162
2722,116.171
2723,116.054
2724,116.137
2725,115.729
2726,115.083
2727,113.725
2728,112.575
2729,114.004
2730,117.113
2731,118.838
2732,119.287
2733,119.483
2734,119.229
2735,118.946
2736,119.400
2737,118.588
2738,117.729
2739,116.463
2740,115.821
2741,117.196
2742,119.375
2743,120.633
2744,120.971
2745,121.417
2746,121.871
2747,121.208
2748,120.821
2749,120.829
2750,120.875
2751,120.954
2752,120.946
2753,121.158
2754,121.900
2755,123.317
2756,124.567
2757,126.296
2758,127.762
2759,127.588
2760,126.392
2761,125.892
2762,125.850
2763,125.921
2764,126.767
2765,126.938
2766,126.992
2767,126.208
2768,125.167
2769,124.887
2770,126.067
2771,125.979
2772,125.054
2773,125.775
2774,126.908
2775,127.354
2776,127.704
2777,128.121
2778,128.825
2779,128.942
2780,129.025
2781,129.342
2782,129.708
2783,129.600
2784,129.175
2785,128.667
2786,128.383
2787,128.113
2788,127.625
2789,129.604
2790,132.154
2791,132.700
2792,131.408
2793,130.233
2794,129.508
2795,128.671
2796,128.442
2797,130.333
2798,132.312
2799,133.762
2800,134.429
2801,134.750
2802,135.146
2803,135.762
2804,135.750
2805,137.104
2806,138.587
2807,138.279
2808,136.858
2809,134.979
2810,133.671
2811,132.854
2812,132.117
2813,133.029
2814,135.100
2815,135.558
2816,135.158
2817,134.683
2818,134.842
2819,134.546
2820,134.479
2821,135.921
2822,138.458
2823,139.421
2824,139.337
2825,138.525
2826,137.163
2827,135.354
2828,133.642
2829,134.704
2830,137.333
2831,137.525
2832,135.979
2833,134.567
2834,133.175
2835,132.529
2836,133.042
2837,132.663
2838,132.121
2839,130.329
2840,128.500
2841,128.642
2842,131.158
2843,133.496
2844,135.242
2845,137.954
2846,140.329
2847,140.250
2848,138.204
2849,137.971
2850,138.967
2851,141.200
2852,143.417
2853,144.812
2854,145.025
2855,144.438
2856,143.867
2857,143.504
2858,143.583
2859,144.383
2860,146.054
2861,147.262
2862,147.008
2863,146.471
2864,145.879
2865,145.833
2866,146.996
2867,147.133
2868,146.433
2869,146.788
2870,147.396
2871,147.833
2872,148.254
2873,148.808
2874,149.633
2875,148.358
2876,146.500
2877,145.779
2878,146.337
2879,148.092
2880,150.517
2881,150.825
2882,151.067
2883,151.137
2884,151.221
2885,152.471
2886,153.592
2887,153.496
2888,152.392
2889,151.179
2890,150.538
2891,149.983
2892,149.617
2893,149.996
2894,150.254
2895,149.267
2896,148.092
2897,146.629
2898,146.637
2899,146.304
2900,146.746
2901,147.579
2902,147.975
2903,148.758
2904,149.512
2905,150.100
2906,151.042
2907,150.333
2908,149.012
2909,147.962
2910,146.804
2911,146.279
2912,146.375
2913,147.496
2914,149.617
2915,151.300
2916,152.150
2917,152.517
2918,152.062
2919,151.000
2920,149.817
2921,148.733
2922,148.021
2923,147.750
2924,147.758
2925,149.746
2926,152.167
2927,153.238
2928,152.654
2929,151.617
2930,150.817
2931,150.821
2932,151.571
2933,154.158
2934,156.892
2935,157.358
2936,155.571
2937,154.350
2938,154.137
2939,153.596
2940,153.621
2941,153.462
2942,153.067
2943,152.600
2944,152.050
2945,151.875
2946,152.896
2947,151.842
2948,150.100
2949,149.808
2950,150.571
2951,153.212
2952,156.133
2953,157.137
2954,157.196
2955,156.596
2956,155.692
2957,155.688
2958,156.529
2959,157.312
2960,158.387
2961,159.538
2962,160.100
2963,158.654
2964,156.246
2965,155.108
2966,155.996
2967,157.188
2968,159.179
2969,159.950
2970,160.167
2971,158.679
2972,156.196
2973,154.704
2974,154.300
2975,154.054
2976,154.788
2977,155.579
2978,157.217
2979,159.183
2980,160.625
2981,162.392
2982,163.792
2983,163.642
2984,162.212
2985,159.988
2986,157.988
2987,157.017
2988,157.087
2989,157.308
2990,157.379
2991,157.900
2992,158.308
2993,159.454
2994,161.721
2995,160.825
2996,158.900
2997,157.083
2998,155.425
2999,155.483
3000,156.750
3001,157.446
3002,158.229
3003,159.421
3004,160.621
3005,161.913
3006,163.700
3007,163.712
3008,162.758
3009,162.517
3010,163.500
3011,163.950
3012,164.079
3013,163.346
3014,162.092
3015,159.696
3016,156.654
3017,155.083
3018,155.333
3019,156.879
3020,159.600
3021,162.350
3022,164.642
3023,166.175
3024,167.233
3025,166.858
3026,165.471
3027,162.579
3028,158.725
3029,157.321
3030,158.579
3031,159.679
3032,161.233
3033,162.904
3034,164.554
3035,164.996
3036,164.550
3037,165.283
3038,165.988
3039,165.796
3040,164.404
3041,162.946
3042,162.271
3043,160.583
3044,159.467
3045,159.038
3046,159.721
3047,159.942
3048,160.092
3049,160.446
3050,160.350
3051,161.271
3052,161.721
3053,163.904
3054,166.350
3055,167.296
3056,166.642
3057,165.312
3058,164.425
3059,162.892
3060,161.483
3061,161.854
3062,163.108
3063,163.812
3064,163.642
3065,162.854
3066,162.188
3067,161.667
3068,161.571
3069,161.433
3070,161.292
3071,160.733
3072,159.821
3073,160.071
3074,161.433
3075,162.217
3076,162.533
3077,164.033
3078,166.333
3079,166.471
3080,165.521
3081,165.142
3082,166.267
3083,167.512
3084,169.779
3085,171.333
3086,172.596
3087,171.529
3088,168.571
3089,166.646
3090,166.408
3091,166.942
3092,168.654
3093,170.387
3094,171.158
3095,169.883
3096,167.021
3097,165.021
3098,164.567
3099,164.225
3100,164.946
3101,167.067
3102,169.562
3103,170.438
3104,170.142
3105,169.183
3106,168.242
3107,167.575
3108,167.858
3109,168.696
3110,169.267
3111,169.575
3112,169.462
3113,169.929
3114,171.242
3115,172.262
3116,173.475
3117,173.913
3118,173.725
3119,172.038
3120,170.317
3121,168.387
3122,167.646
3123,166.025
3124,164.217
3125,163.363
3126,163.683
3127,165.062
3128,167.242
3129,169.233
3130,171.038
3131,171.700
3132,171.292
3133,170.758
3134,170.092
3135,169.096
3136,168.042
3137,166.746
3138,165.637
3139,164.333
3140,163.233
3141,162.121
3142,161.258
3143,159.792
3144,159.075
3145,158.967
3146,160.083
3147,160.217
3148,159.967
3149,161.558
3150,163.854
3151,164.417
3152,163.812
3153,163.425
3154,163.975
3155,162.913
3156,161.587
3157,160.867
3158,160.404
3159,160.617
3160,161.150
3161,162.492
3162,164.642
3163,166.246
3164,167.275
3165,167.650
3166,167.592
3167,167.292
3168,166.254
3169,167.125
3170,169.296
3171,170.479
3172,170.467
3173,170.913
3174,170.821
3175,169.996
3176,169.396
3177,168.933
3178,168.863
3179,168.625
3180,168.275
3181,168.500
3182,169.725
3183,170.646
3184,171.821
3185,171.887
3186,171.642
3187,170.904
3188,170.387
3189,170.829
3190,171.950
3191,172.558
3192,173.054
3193,172.608
3194,171.396
3195,169.700
3196,168.475
3197,167.358
3198,167.121
3199,167.117
3200,167.575
3201,167.821
3202,168.012
3203,166.342
3204,164.446
3205,162.479
3206,161.804
3207,161.113
3208,161.462
3209,161.996
3210,163.079
3211,162.654
3212,161.771
3213,160.604
3214,159.829
3215,159.521
3216,160.446
3217,161.167
3218,162.983
3219,163.650
3220,163.717
3221,163.521
3222,162.783
3223,162.758
3224,163.504
3225,163.025
3226,162.596
3227,161.208
3228,159.904
3229,159.133
3230,159.571
3231,160.617
3232,162.017
3233,163.637
3234,165.325
3235,165.167
3236,163.704
3237,163.025
3238,163.600
3239,164.442
3240,165.079
3241,166.029
3242,167.512
3243,168.033
3244,168.017
3245,167.983
3246,167.258
3247,167.146
3248,167.283
3249,168.308
3250,170.346
3251,171.658
3252,172.496
3253,173.304
3254,174.117
3255,174.633
3256,175.196
3257,174.675
3258,174.417
3259,174.017
3260,174.012
3261,173.079
3262,171.025
3263,169.250
3264,167.650
3265,166.754
3266,166.863
3267,167.008
3268,167.233
3269,168.417
3270,169.837
3271,170.700
3272,170.750
3273,171.104
3274,171.454
3275,171.292
3276,170.846
3277,170.558
3278,170.938
3279,170.788
3280,170.246
3281,169.833
3282,170.025
3283,169.858
3284,170.075
3285,170.887
3286,171.742
3287,172.271
3288,172.146
3289,172.129
3290,172.546
3291,172.325
3292,170.837
3293,170.450
3294,170.792
3295,170.900
3296,171.250
3297,171.692
3298,172.767
3299,172.683
3300,171.933
3301,170.738
3302,169.958
3303,168.812
3304,167.729
3305,167.558
3306,168.021
3307,168.762
3308,170.092
3309,170.967
3310,170.975
3311,171.200
3312,171.346
3313,170.954
3314,170.467
3315,170.442
3316,170.704
3317,170.863
3318,171.371
3319,170.346
3320,168.483
3321,166.629
3322,166.171
3323,167.117
3324,168.942
3325,170.808
3326,171.929
3327,172.396
3328,172.392
3329,172.108
3330,172.025
3331,171.996
3332,171.892
3333,172.212
3334,172.663
3335,171.104
3336,167.325
3337,164.583
3338,164.258
3339,164.992
3340,166.983
3341,168.954
3342,169.354
3343,169.758
3344,169.733
3345,169.683
3346,170.575
3347,168.850
3348,165.142
3349,163.100
3350,163.092
3351,164.883
3352,168.246
3353,170.508
3354,172.071
3355,171.808
3356,170.275
3357,168.808
3358,167.550
3359,166.879
3360,167.188
3361,166.746
3362,166.867
3363,167.158
3364,167.333
3365,166.946
3366,166.458
3367,166.512
3368,167.025
3369,166.950
3370,167.100
3371,167.683
3372,168.817
3373,170.450
3374,172.167
3375,172.312
3376,171.171
3377,168.988
3378,167.025
3379,165.204
3380,164.312
3381,164.762
3382,166.521
3383,168.404
3384,169.692
3385,170.304
3386,170.762
3387,169.717
3388,167.908
3389,166.229
3390,164.583
3391,163.554
3392,163.196
3393,163.671
3394,165.233
3395,167.658
3396,169.721
3397,170.767
3398,171.038
3399,169.779
3400,167.812
3401,166.292
3402,166.071
3403,165.275
3404,163.950
3405,163.433
3406,163.500
3407,162.675
3408,161.812
3409,161.642
3410,162.917
3411,165.121
3412,166.275
3413,167.475
3414,168.225
3415,167.350
3416,165.050
3417,163.604
3418,163.779
3419,163.646
3420,163.400
3421,163.371
3422,163.025
3423,162.404
3424,161.442
3425,160.250
3426,160.725
3427,161.387
3428,162.208
3429,163.629
3430,164.562
3431,165.400
3432,166.350
3433,166.029
3434,165.796
3435,164.754
3436,163.896
3437,163.475
3438,163.879
3439,163.042
3440,162.508
3441,161.958
3442,162.146
3443,162.254
3444,162.238
3445,162.275
3446,162.312
3447,161.496
3448,160.492
3449,159.608
3450,159.842
3451,158.575
3452,157.033
3453,156.533
3454,156.983
3455,158.025
3456,159.200
3457,159.721
3458,160.900
3459,160.025
3460,158.637
3461,157.158
3462,156.217
3463,155.408
3464,155.300
3465,153.854
3466,152.004
3467,150.850
3468,151.329
3469,152.004
3470,152.958
3471,152.629
3472,151.417
3473,151.325
3474,152.863
3475,154.225
3476,155.629
3477,157.171
3478,157.333
3479,157.421
3480,157.025
3481,156.400
3482,157.154
3483,157.004
3484,156.683
3485,156.408
3486,155.854
3487,155.554
3488,155.642
3489,156.446
3490,157.929
3491,157.925
3492,157.417
3493,157.367
3494,157.629
3495,157.962
3496,158.375
3497,157.704
3498,157.438
3499,156.450
3500,155.208
3501,153.729
3502,152.725
3503,152.200
3504,152.679
3505,153.842
3506,156.462
3507,157.417
3508,157.058
3509,156.837
3510,157.225
3511,156.617
3512,155.629
3513,153.696
3514,152.096
3515,150.929
3516,150.433
3517,150.887
3518,151.558
3519,151.758
3520,151.671
3521,151.175
3522,151.579
3523,150.742
3524,150.446
3525,151.783
3526,154.229
3527,156.538
3528,158.317
3529,158.554
3530,157.792
3531,156.017
3532,154.333
3533,153.571
3534,153.438
3535,152.762
3536,151.796
3537,150.812
3538,150.946
3539,150.821
3540,150.858
3541,150.812
3542,150.942
3543,149.979
3544,149.204
3545,148.492
3546,149.054
3547,148.900
3548,149.062
3549,150.308
3550,151.833
3551,153.021
3552,153.904
3553,153.817
3554,152.929
3555,151.904
3556,151.100
3557,150.704
3558,151.408
3559,151.608
3560,150.967
3561,151.587
3562,152.692
3563,153.092
3564,152.913
3565,151.892
3566,150.246
3567,148.767
3568,148.217
3569,146.771
3570,145.696
3571,144.871
3572,144.925
3573,145.617
3574,146.683
3575,146.562
3576,145.704
3577,145.883
3578,146.650
3579,148.442
3580,150.221
3581,150.988
3582,150.312
3583,148.988
3584,146.967
3585,145.062
3586,144.962
3587,144.225
3588,143.558
3589,144.113
3590,145.413
3591,145.663
3592,144.387
3593,145.008
3594,147.279
3595,148.863
3596,149.321
3597,149.758
3598,149.400
3599,148.375
3600,146.608
3601,145.046
3602,143.467
3603,141.979
3604,140.917
3605,140.242
3606,140.317
3607,139.938
3608,139.296
3609,138.762
3610,139.312
3611,139.812
3612,139.988
3613,140.958
3614,141.738
3615,141.804
3616,141.508
3617,140.800
3618,140.921
3619,140.446
3620,139.938
3621,139.512
3622,138.879
3623,138.387
3624,138.154
3625,138.792
3626,140.192
3627,141.779
3628,142.583
3629,143.587
3630,144.050
3631,143.525
3632,142.546
3633,140.492
3634,139.175
3635,137.579
3636,135.300
3637,134.625
3638,135.854
3639,136.950
3640,138.312
3641,137.554
3642,135.858
3643,134.033
3644,132.658
3645,134.054
3646,138.200
3647,140.350
3648,140.208
3649,138.350
3650,135.521
3651,132.317
3652,129.783
3653,128.337
3654,128.479
3655,129.250
3656,130.137
3657,131.021
3658,132.300
3659,132.683
3660,132.746
3661,132.654
3662,132.542
3663,131.571
3664,129.679
3665,128.725
3666,128.592
3667,128.267
3668,128.000
3669,127.925
3670,128.175
3671,128.642
3672,129.267
3673,129.575
3674,129.675
3675,128.617
3676,126.667
3677,125.562
3678,125.492
3679,125.333
3680,125.654
3681,125.238
3682,124.171
3683,123.133
3684,122.233
3685,120.675
3686,119.229
3687,118.154
3688,118.350
3689,118.967
3690,120.513
3691,122.004
3692,123.363
3693,124.429
3694,125.554
3695,125.550
3696,124.613
3697,123.717
3698,123.254
3699,123.167
3700,123.496
3701,123.771
3702,124.188
3703,124.417
3704,125.058
3705,125.275
3706,126.533
3707,126.637
3708,125.654
3709,124.271
3710,122.283
3711,120.338
3712,118.683
3713,116.892
3714,116.092
3715,115.375
3716,115.004
3717,114.921
3718,114.846
3719,114.708
3720,114.996
3721,115.067
3722,115.883
3723,114.208
3724,111.475
3725,110.654
3726,112.067
3727,113.613
3728,114.467
3729,114.442
3730,113.963
3731,113.583
3732,113.221
3733,113.979
3734,114.671
3735,114.008
3736,112.900
3737,111.467
3738,111.029
3739,110.637
3740,110.804
3741,111.113
3742,110.704
3743,110.113
3744,108.988
3745,108.667
3746,109.708
3747,111.300
3748,113.117
3749,113.938
3750,113.358
3751,112.363
3752,111.350
3753,110.383
3754,110.496
3755,108.725
3756,106.075
3757,103.500
3758,102.667
3759,101.267
3760,100.558
3761,99.617
3762,99.825
3763,100.254
3764,101.583
3765,103.371
3766,104.617
3767,105.392
3768,104.675
3769,103.842
3770,102.967
3771,102.121
3772,101.850
3773,101.688
3774,101.762
3775,101.708
3776,101.254
3777,100.871
3778,100.704
3779,99.958
3780,98.704
3781,97.850
3782,97.108
3783,95.250
3784,93.496
3785,92.417
3786,92.450
3787,91.838
3788,90.729
3789,89.729
3790,89.037
3791,88.767
3792,89.546
3793,90.421
3794,92.004
3795,91.954
3796,91.104
3797,90.588
3798,90.625
3799,90.463
3800,90.213
3801,89.750
3802,89.675
3803,89.058
3804,88.546
3805,88.825
3806,89.471
3807,89.396
3808,89.029
3809,88.471
3810,88.637
3811,88.433
3812,88.400
3813,88.904
3814,89.833
3815,90.325
3816,90.054
3817,90.229
3818,91.783
3819,91.825
3820,90.762
3821,89.733
3822,88.762
3823,88.192
3824,87.988
3825,87.812
3826,88.746
3827,89.137
3828,89.433
3829,90.250
3830,90.442
3831,90.025
3832,87.725
3833,86.429
3834,86.308
3835,86.175
3836,86.379
3837,86.812
3838,87.238
3839,87.179
3840,87.383
3841,87.400
3842,87.892
3843,87.608
3844,87.154
3845,87.146
3846,87.304
3847,87.283
3848,87.571
3849,87.662
3850,88.471
3851,87.575
3852,86.129
3853,85.179
3854,84.821
3855,84.596
3856,84.333
3857,83.442
3858,83.629
3859,82.808
3860,81.325
3861,80.650
3862,80.233
3863,79.821
3864,79.679
3865,79.154
3866,79.100
3867,78.321
3868,77.325
3869,77.100
3870,77.400
3871,77.371
3872,77.450
3873,77.425
3874,78.254
3875,78.121
3876,77.271
3877,76.758
3878,76.796
3879,76.758
3880,76.650
3881,76.342
3882,76.637
3883,76.542
3884,75.812
3885,75.483
3886,75.525
3887,75.117
3888,74.904
3889,74.642
3890,75.375
3891,75.650
3892,75.208
3893,74.979
3894,75.367
3895,75.025
3896,73.733
3897,72.529
3898,71.767
3899,71.204
3900,70.671
3901,70.596
3902,71.150
3903,70.717
3904,70.358
3905,69.704
3906,69.454
3907,68.758
3908,67.983
3909,67.517
3910,67.192
3911,67.137
3912,66.537
3913,66.208
3914,66.450
3915,66.025
3916,65.542
3917,65.179
3918,64.742
3919,64.667
3920,64.483
3921,64.004
3922,64.733
3923,64.300
3924,64.425
3925,64.433
3926,64.242
3927,64.375
3928,64.479
3929,63.938
3930,63.767
3931,63.162
3932,62.475
3933,61.650
3934,60.842
3935,60.287
3936,60.638
3937,61.342
3938,62.917
3939,63.175
3940,62.617
3941,62.683
3942,62.979
3943,62.679
3944,62.033
3945,60.917
3946,59.721
3947,58.717
3948,58.050
3949,57.633
3950,57.883
3951,57.746
3952,57.921
3953,58.179
3954,58.658
3955,58.638
3956,58.358
3957,57.971
3958,57.629
3959,57.154
3960,56.938
3961,56.167
3962,55.742
3963,55.079
3964,54.588
3965,54.321
3966,54.708
3967,55.208
3968,55.787
3969,55.629
3970,55.787
3971,55.246
3972,54.504
3973,54.621
3974,55.054
3975,54.862
3976,54.321
3977,52.987
3978,51.967
3979,50.725
3980,49.192
3981,48.375
3982,48.037
3983,47.196
3984,47.092
3985,46.383
3986,46.467
3987,45.812
3988,45.479
3989,45.317
3990,44.617
3991,44.558
3992,44.683
3993,44.592
3994,44.954
3995,44.558
3996,43.179
3997,42.500
3998,42.442
3999,41.821
4000,41.487
4001,40.987
4002,40.908
4003,40.704
4004,40.121
4005,39.667
4006,39.679
4007,39.321
4008,38.833
4009,38.104
4010,37.850
4011,36.821
4012,36.092
4013,35.713
4014,35.196
4015,35.013
4016,34.079
4017,33.162
4018,32.888
4019,32.233
4020,31.587
4021,30.683
4022,30.263
4023,29.783
4024,29.779
4025,29.200
4026,29.096
4027,28.888
4028,28.462
4029,28.092
4030,27.750
4031,27.183
4032,26.567
4033,26.271
4034,26.367
4035,26.283
4036,26.125
4037,25.725
4038,25.504
4039,24.929
4040,24.667
4041,24.350
4042,24.675
4043,24.646
4044,24.237
4045,24.104
4046,23.667
4047,23.317
4048,23.354
4049,23.192
4050,23.258
4051,23.263
4052,22.950
4053,22.879
4054,22.888
4055,22.763
4056,22.617
4057,22.496
4058,22.446
4059,22.225
4060,22.046
4061,21.708
4062,21.367
4063,21.167
4064,21.283
4065,21.121
4066,20.908
4067,20.946
4068,20.875
4069,21.075
4070,21.433
4071,21.483
4072,21.079
4073,20.837
4074,20.812
4075,20.788
4076,20.808
4077,20.767
4078,20.758
4079,20.721
4080,20.425
4081,20.188
4082,20.033
4083,19.796
4084,19.779
4085,19.879
4086,20.163
4087,20.204
4088,20.462
4089,20.100
4090,20.504
4091,20.317
4092,19.971
4093,19.808
4094,20.021
4095,19.708
4096,19.529
4097,19.329
4098,19.629
4099,19.542
4100,19.117
4101,18.992
4102,18.742
4103,18.692
4104,18.629
4105,18.454
4106,18.721
4107,18.858
4108,18.600
4109,18.600
4110,18.708
4111,18.496
4112,18.638
4113,18.525
4114,18.592
4115,18.654
4116,18.779
4117,18.929
4118,19.212
4119,19.337
4120,19.121
4121,19.071
4122,19.087
4123,19.125
4124,18.921
4125,18.908
4126,19.129
4127,19.167
4128,19.379
4129,19.342
4130,19.717
4131,19.879
4132,19.654
4133,19.854
4134,20.396
4135,20.379
4136,19.971
4137,20.233
4138,20.592
4139,20.879
4140,20.962
4141,20.987
4142,20.950
4143,20.888
4144,20.754
4145,20.587
4146,21.008
4147,21.146
4148,21.167
4149,21.404
4150,21.529
4151,21.754
4152,21.737
4153,21.646
4154,22.058
4155,22.546
4156,22.362
4157,22.325
4158,22.650
4159,23.013
4160,22.904
4161,22.879
4162,22.725
4163,22.737
4164,23.150
4165,23.525
4166,23.788
4167,24.042
4168,23.950
4169,23.821
4170,23.771
4171,24.083
4172,24.092
4173,24.067
4174,24.054
4175,23.967
4176,23.971
4177,24.233
4178,24.696
4179,24.879
4180,25.104
4181,25.254
4182,25.487
4183,25.721
4184,25.517
4185,25.600
4186,25.779
4187,25.629
4188,25.513
4189,25.633
4190,25.737
4191,26.200
4192,27.000
4193,27.542
4194,28.325
4195,28.821
4196,29.104
4197,29.429
4198,29.792
4199,29.742
4200,29.542
4201,29.487
4202,29.667
4203,29.629
4204,29.763
4205,29.879
4206,29.921
4207,30.196
4208,30.254
4209,30.654
4210,31.096
4211,31.342
4212,31.558
4213,31.904
4214,32.371
4215,32.525
4216,32.025
4217,31.967
4218,32.408
4219,32.287
4220,31.958
4221,32.058
4222,31.754
4223,31.808
4224,32.246
4225,32.754
4226,33.625
4227,34.225
4228,34.417
4229,34.646
4230,35.042
4231,34.925
4232,34.763
4233,34.546
4234,35.321
4235,35.654
4236,35.742
4237,35.992
4238,36.404
4239,36.350
4240,36.487
4241,36.742
4242,37.304
4243,37.417
4244,37.279
4245,37.283
4246,37.650
4247,37.767
4248,37.571
4249,37.275
4250,37.383
4251,37.317
4252,37.333
4253,37.850
4254,38.642
4255,38.933
4256,39.254
4257,39.546
4258,40.150
4259,40.275
4260,40.208
4261,40.171
4262,40.746
4263,40.925
4264,40.696
4265,39.817
4266,39.742
4267,39.546
4268,39.417
4269,39.912
4270,40.917
4271,41.529
4272,42.071
4273,42.542
4274,43.146
4275,43.579
4276,44.263
4277,44.558
4278,45.004
4279,45.358
4280,45.513
4281,46.204
4282,47.138
4283,47.204
4284,46.871
4285,46.121
4286,45.425
4287,45.296
4288,45.642
4289,45.583
4290,46.246
4291,46.404
4292,46.996
4293,48.142
4294,49.075
4295,49.412
4296,48.767
4297,48.029
4298,47.596
4299,47.333
4300,47.592
4301,47.758
4302,47.775
4303,48.037
4304,48.925
4305,49.254
4306,50.033
4307,50.133
4308,50.300
4309,50.463
4310,50.804
4311,51.129
4312,50.737
4313,50.325
4314,50.888
4315,50.971
4316,49.812
4317,49.004
4318,48.796
4319,48.392
4320,48.433
4321,48.013
4322,48.662
4323,49.054
4324,49.100
4325,49.050
4326,49.096
4327,48.846
4328,48.179
4329,47.662
4330,48.250
4331,48.500
4332,48.658
4333,48.992
4334,49.025
4335,48.642
4336,48.533
4337,48.625
4338,48.996
4339,49.279
4340,49.929
4341,50.138
4342,50.179
4343,50.058
4344,50.154
4345,49.754
4346,49.438
4347,49.217
4348,49.367
4349,49.446
4350,49.737
4351,49.933
4352,50.517
4353,50.700
4354,51.242
4355,51.617
4356,51.854
4357,52.104
4358,52.463
4359,52.379
4360,52.067
4361,51.237
4362,51.150
4363,50.950
4364,51.213
4365,52.017
4366,52.500
4367,52.825
4368,52.783
4369,52.658
4370,53.417
4371,53.021
4372,52.483
4373,51.758
4374,51.654
4375,51.425
4376,51.325
4377,51.121
4378,51.404
4379,51.358
4380,51.629
4381,51.633
4382,51.496
4383,51.529
4384,51.942
4385,51.896
4386,52.292
4387,52.350
4388,52.325
4389,52.175
4390,52.400
4391,52.312
4392,51.812
4393,51.200
4394,51.367
4395,51.133
4396,50.667
4397,50.358
4398,50.146
4399,50.013
4400,50.204
4401,49.800
4402,50.017
4403,50.312
4404,51.079
4405,51.800
4406,52.375
4407,52.879
4408,53.838
4409,54.771
4410,56.029
4411,55.862
4412,54.696
4413,53.838
4414,53.463
4415,52.796
4416,52.583
4417,50.850
4418,49.583
4419,48.463
4420,47.667
4421,46.679
4422,46.246
4423,46.117
4424,46.646
4425,47.467
4426,48.733
4427,49.425
4428,49.471
4429,49.200
4430,49.333
4431,49.379
4432,48.704
4433,48.083
4434,48.388
4435,48.254
4436,48.304
4437,48.463
4438,48.792
4439,48.608
4440,48.958
4441,49.279
4442,50.104
4443,50.458
4444,50.508
4445,51.175
4446,52.221
4447,52.475
4448,52.088
4449,51.467
4450,51.704
4451,51.229
4452,50.779
4453,50.533
4454,50.842
4455,50.996
4456,51.596
4457,51.767
4458,52.862
4459,53.229
4460,53.050
4461,52.787
4462,52.692
4463,51.896
4464,51.133
4465,50.717
4466,51.358
4467,51.917
4468,52.325
4469,52.933
4470,53.983
4471,54.525
4472,53.737
4473,53.550
4474,54.050
4475,54.217
4476,53.817
4477,53.517
4478,53.408
4479,52.787
4480,52.883
4481,52.421
4482,52.708
4483,52.725
4484,52.708
4485,52.812
4486,52.946
4487,52.875
4488,52.737
4489,52.354
4490,52.133
4491,51.675
4492,51.471
4493,50.954
4494,50.708
4495,50.987
4496,51.150
4497,51.067
4498,52.179
4499,52.458
4500,52.254
4501,52.267
4502,52.679
4503,52.617
4504,52.321
4505,51.971
4506,52.171
4507,51.775
4508,50.825
4509,50.442
4510,50.829
4511,50.754
4512,50.321
4513,50.525
4514,51.379
4515,51.958
4516,52.638
4517,52.975
4518,53.129
4519,53.125
4520,53.321
4521,53.329
4522,54.029
4523,53.925
4524,53.129
4525,52.071
4526,51.650
4527,51.004
4528,50.733
4529,50.408
4530,50.521
4531,50.487
4532,51.021
4533,51.296
4534,51.400
4535,51.388
4536,51.629
4537,51.296
4538,51.487
4539,51.312
4540,51.308
4541,51.496
4542,51.571
4543,51.621
4544,51.725
4545,51.725
4546,52.213
4547,52.438
4548,52.371
4549,51.867
4550,51.733
4551,51.508
4552,51.433
4553,51.400
4554,51.542
4555,51.396
4556,51.258
4557,50.471
4558,49.662
4559,49.025
4560,49.079
4561,48.987
4562,49.096
4563,48.904
4564,48.796
4565,48.767
4566,49.271
4567,49.312
4568,49.000
4569,48.779
4570,49.037
4571,48.767
4572,48.304
4573,47.917
4574,48.108
4575,48.154
4576,48.304
4577,48.108
4578,48.508
4579,48.429
4580,47.900
4581,47.662
4582,48.075
4583,47.900
4584,47.508
4585,47.513
4586,48.229
4587,48.042
4588,47.808
4589,47.833
4590,48.142
4591,48.596
4592,48.421
4593,48.783
4594,49.308
4595,49.467
4596,49.204
4597,49.217
4598,49.625
4599,49.396
4600,48.717
4601,48.142
4602,48.308
4603,48.204
4604,47.654
4605,47.162
4606,46.704
4607,46.271
4608,46.304
4609,45.908
4610,45.804
4611,45.458
4612,45.329
4613,45.208
4614,45.475
4615,45.283
4616,46.171
4617,46.662
4618,47.779
4619,47.954
4620,47.925
4621,47.675
4622,47.737
4623,47.412
4624,46.704
4625,46.308
4626,45.858
4627,45.858
4628,46.404
4629,47.033
4630,47.933
4631,48.438
4632,48.558
4633,48.325
4634,48.333
4635,47.708
4636,46.425
4637,45.158
4638,44.963
4639,44.908
4640,44.912
4641,44.912
4642,45.650
4643,45.796
4644,45.500
4645,45.483
4646,45.758
4647,45.767
4648,45.750
4649,44.900
4650,44.571
4651,43.763
4652,42.971
4653,42.638
4654,42.329
4655,41.925
4656,41.483
4657,41.029
4658,41.358
4659,41.138
4660,40.904
4661,40.963
4662,41.200
4663,41.388
4664,41.242
4665,40.667
4666,40.629
4667,40.154
4668,39.942
4669,40.013
4670,40.267
4671,40.358
4672,40.342
4673,40.342
4674,40.592
4675,40.592
4676,40.754
4677,40.675
4678,40.850
4679,40.800
4680,40.833
4681,40.775
4682,40.625
4683,40.367
4684,40.092
4685,39.500
4686,39.196
4687,39.054
4688,38.871
4689,38.646
4690,38.750
4691,38.508
4692,38.037
4693,38.029
4694,38.375
4695,38.438
4696,38.362
4697,37.879
4698,37.671
4699,37.429
4700,37.188
4701,37.254
4702,37.967
4703,38.392
4704,38.612
4705,38.442
4706,38.950
4707,38.804
4708,38.217
4709,37.796
4710,37.871
4711,37.508
4712,36.592
4713,35.804
4714,35.612
4715,35.271
4716,34.487
4717,33.846
4718,33.692
4719,33.383
4720,33.342
4721,32.946
4722,32.879
4723,32.829
4724,32.754
4725,32.683
4726,32.900
4727,32.804
4728,31.987
4729,31.529
4730,31.579
4731,31.125
4732,30.183
4733,29.858
4734,29.904
4735,29.900
4736,29.587
4737,28.850
4738,28.754
4739,28.421
4740,28.167
4741,28.283
4742,28.458
4743,28.517
4744,27.917
4745,27.350
4746,26.967
4747,26.737
4748,26.450
4749,26.450
4750,26.883
4751,27.237
4752,27.375
4753,27.433
4754,27.683
4755,27.783
4756,27.896
4757,27.987
4758,28.171
4759,28.179
4760,28.192
4761,28.508
4762,28.975
4763,28.846
4764,28.087
4765,27.129
4766,26.612
4767,26.033
4768,26.079
4769,26.025
4770,26.521
4771,26.792
4772,26.775
4773,26.683
4774,26.579
4775,26.179
4776,25.929
4777,25.938
4778,26.250
4779,26.212
4780,25.967
4781,25.475
4782,25.504
4783,25.342
4784,25.733
4785,25.900
4786,26.304
4787,25.908
4788,25.221
4789,24.721
4790,24.737
4791,24.596
4792,24.546
4793,24.321
4794,24.496
4795,24.446
4796,24.112
4797,24.129
4798,24.350
4799,24.237
4800,24.108
4801,23.888
4802,24.096
4803,23.888
4804,23.721
4805,23.550
4806,23.967
4807,24.271
4808,23.479
4809,23.217
4810,22.879
4811,22.421
4812,22.617
4813,22.725
4814,22.471
4815,22.404
4816,22.263
4817,21.954
4818,21.913
4819,22.013
4820,22.167
4821,22.000
4822,22.100
4823,22.121
4824,21.650
4825,21.579
4826,22.025
4827,22.000
4828,21.696
4829,21.337
4830,21.025
4831,21.225
4832,20.938
4833,21.167
4834,21.721
4835,21.617
4836,21.504
4837,21.212
4838,21.246
4839,21.237
4840,20.892
4841,20.579
4842,20.450
4843,20.333
4844,20.163
4845,20.304
4846,20.883
4847,21.275
4848,20.821
4849,20.250
4850,20.204
4851,20.079
4852,20.383
4853,20.754
4854,20.942
4855,20.913
4856,19.850
4857,19.388
4858,19.342
4859,19.354
4860,19.779
4861,20.096
4862,19.875
4863,19.708
4864,19.679
4865,19.350
4866,19.429
4867,19.388
4868,19.446
4869,19.421
4870,19.587
4871,19.587
4872,19.154
4873,18.708
4874,18.413
4875,18.150
4876,18.013
4877,18.133
4878,18.354
4879,18.454
4880,18.688
4881,18.592
4882,18.821
4883,18.808
4884,18.296
4885,17.850
4886,17.717
4887,17.483
4888,17.254
4889,17.242
4890,17.342
4891,17.408
4892,17.483
4893,17.250
4894,17.138
4895,17.358
4896,17.054
4897,16.921
4898,17.079
4899,16.842
4900,17.062
4901,17.237
4902,16.942
4903,17.188
4904,16.812
4905,16.554
4906,16.271
4907,16.237
4908,16.075
4909,16.263
4910,16.717
4911,17.279
4912,16.942
4913,16.567
4914,16.729
4915,16.729
4916,16.458
4917,16.483
4918,16.312
4919,15.975
4920,15.867
4921,15.992
4922,16.087
4923,16.375
4924,16.462
4925,16.375
4926,15.954
4927,15.567
4928,15.613
4929,15.663
4930,16.112
4931,16.062
4932,15.879
4933,15.954
4934,15.988
4935,16.021
4936,15.387
4937,15.292
4938,15.454
4939,15.654
4940,15.667
4941,15.529
4942,15.529
4943,15.462
4944,15.154
4945,15.425
4946,15.704
4947,15.596
4948,15.558
4949,15.462
4950,15.533
4951,15.471
4952,15.617
4953,15.400
4954,15.392
4955,15.442
4956,15.354
4957,15.304
4958,15.154
4959,15.017
4960,15.067
4961,15.117
4962,15.279
4963,15.167
4964,14.975
4965,14.921
4966,14.933
4967,14.792
4968,14.508
4969,14.133
4970,14.788
4971,15.175
4972,15.108
4973,15.208
4974,14.775
4975,14.775
4976,14.704
4977,14.467
4978,14.554
4979,14.779
4980,14.879
4981,14.979
4982,15.042
4983,14.792
4984,14.025
4985,13.812
4986,14.413
4987,14.350
4988,14.996
4989,15.413
4990,14.783
4991,15.012
4992,14.900
4993,14.529
4994,14.371
4995,14.396
4996,14.654
4997,15.004
4998,15.067
4999,15.279
5000,14.779
5001,14.992
5002,15.204
5003,15.267
5004,14.913
5005,14.925
5006,14.883
5007,15.033
5008,14.887
5009,14.438
5010,14.525
5011,14.425
5012,13.867
5013,14.004
5014,14.488
5015,14.442
5016,14.133
5017,13.833
5018,14.067
5019,14.292
5020,14.433
5021,14.583
5022,14.900
5023,14.725
5024,14.804
5025,14.779
5026,14.971
5027,14.683
5028,14.283
5029,14.271
5030,14.192
5031,14.475
5032,14.425
5033,14.163
5034,14.725
5035,14.738
5036,14.096
5037,13.988
5038,14.062
5039,14.067
5040,14.371
5041,14.450
5042,14.600
5043,14.425
5044,14.096
5045,13.933
5046,14.008
5047,14.088
5048,13.788
5049,13.875
5050,14.058
5051,14.221
5052,14.312
5053,14.250
5054,13.942
5055,13.788
5056,14.021
5057,14.387
5058,14.758
5059,14.808
5060,14.696
5061,14.746
5062,14.846
5063,15.096
5064,15.292
5065,15.279
5066,15.367
5067,15.342
5068,14.712
5069,14.346
5070,14.196
5071,13.979
5072,14.467
5073,14.279
5074,14.933
5075,15.021
5076,15.117
5077,15.342
5078,15.333
5079,15.646
5080,15.267
5081,14.988
5082,15.113
5083,15.404
5084,15.425
5085,15.387
5086,15.525
5087,15.500
5088,15.721
5089,15.608
5090,16.163
5091,16.675
5092,16.529
5093,16.354
5094,16.467
5095,16.583
5096,17.021
5097,17.050
5098,17.742
5099,17.717
5100,17.379
5101,17.312
5102,17.054
5103,17.229
5104,17.121
5105,17.271
5106,17.629
5107,17.663
5108,17.587
5109,17.696
5110,17.975
5111,18.221
5112,18.142
5113,17.962
5114,17.688
5115,17.446
5116,17.679
5117,18.221
5118,18.854
5119,19.358
5120,18.900
5121,18.388
5122,18.396
5123,18.671
5124,18.442
5125,18.188
5126,18.379
5127,18.479
5128,18.775
5129,18.650
5130,18.817
5131,18.896
5132,18.517
5133,18.462
5134,18.763
5135,18.862
5136,18.538
5137,18.317
5138,18.317
5139,18.362
5140,18.300
5141,18.250
5142,18.550
5143,18.608
5144,18.596
5145,18.379
5146,18.350
5147,18.317
5148,18.358
5149,18.296
5150,18.533
5151,18.858
5152,18.533
5153,18.346
5154,18.300
5155,18.292
5156,18.529
5157,18.608
5158,18.638
5159,18.487
5160,18.688
5161,18.604
5162,18.967
5163,19.142
5164,19.146
5165,19.321
5166,19.708
5167,19.987
5168,19.487
5169,19.267
5170,19.112
5171,18.942
5172,18.967
5173,19.121
5174,19.233
5175,19.371
5176,19.050
5177,19.033
5178,19.288
5179,19.392
5180,19.300
5181,19.404
5182,19.558
5183,19.562
5184,19.579
5185,19.121
5186,19.533
5187,19.554
5188,19.138
5189,18.871
5190,18.754
5191,18.725
5192,18.837
5193,18.550
5194,18.921
5195,19.067
5196,18.800
5197,18.700
5198,18.825
5199,19.108
5200,19.112
5201,18.950
5202,19.112
5203,18.958
5204,18.617
5205,18.608
5206,18.938
5207,19.000
5208,18.767
5209,18.325
5210,18.237
5211,17.992
5212,17.712
5213,18.029
5214,18.712
5215,19.033
5216,18.671
5217,18.496
5218,18.471
5219,18.263
5220,18.129
5221,18.258
5222,18.625
5223,18.742
5224,18.883
5225,18.608
5226,18.654
5227,18.483
5228,18.388
5229,18.200
5230,17.904
5231,18.079
5232,17.808
5233,17.696
5234,17.871
5235,18.042
5236,18.250
5237,18.417
5238,18.458
5239,18.308
5240,18.158
5241,17.867
5242,18.050
5243,18.233
5244,18.383
5245,18.258
5246,17.808
5247,17.658
5248,17.542
5249,17.888
5250,18.429
5251,18.904
5252,19.221
5253,18.979
5254,18.750
5255,18.421
5256,18.288
5257,18.083
5258,18.033
5259,18.167
5260,18.450
5261,18.575
5262,18.504
5263,18.392
5264,17.971
5265,17.796
5266,18.429
5267,18.667
5268,18.758
5269,19.058
5270,19.125
5271,18.883
5272,19.000
5273,18.550
5274,18.500
5275,18.508
5276,18.454
5277,18.375
5278,18.388
5279,18.263
5280,18.254
5281,18.038
5282,18.258
5283,18.317
5284,18.142
5285,18.125
5286,18.467
5287,18.442
5288,18.425
5289,17.975
5290,18.258
5291,18.467
5292,18.300
5293,18.167
5294,18.021
5295,17.842
5296,17.617
5297,17.488
5298,18.054
5299,18.617
5300,18.612
5301,18.667
5302,18.800
5303,18.683
5304,18.275
5305,18.092
5306,18.129
5307,18.358
5308,18.513
5309,18.363
5310,18.317
5311,18.392
5312,18.158
5313,17.746
5314,17.350
5315,17.042
5316,16.975
5317,17.454
5318,17.987
5319,18.150
5320,17.867
5321,17.517
5322,17.333
5323,17.312
5324,17.192
5325,16.996
5326,17.196
5327,17.279
5328,17.421
5329,17.117
5330,17.054
5331,16.525
5332,16.138
5333,15.971
5334,15.921
5335,16.200
5336,16.583
5337,16.775
5338,17.042
5339,16.987
5340,16.646
5341,16.683
5342,17.146
5343,17.346
5344,17.171
5345,16.879
5346,16.837
5347,16.571
5348,16.254
5349,16.071
5350,16.500
5351,16.575
5352,16.592
5353,16.383
5354,16.242
5355,16.100
5356,16.542
5357,16.904
5358,16.908
5359,17.146
5360,17.067
5361,16.833
5362,17.167
5363,17.058
5364,16.862
5365,16.775
5366,16.592
5367,16.883
5368,16.750
5369,16.775
5370,17.021
5371,16.950
5372,16.617
5373,16.496
5374,16.442
5375,16.446
5376,17.392
5377,17.229
5378,17.458
5379,17.417
5380,16.888
5381,16.671
5382,17.067
5383,17.329
5384,17.129
5385,16.921
5386,17.192
5387,17.200
5388,17.258
5389,17.146
5390,16.892
5391,16.700
5392,16.317
5393,16.100
5394,16.283
5395,16.763
5396,16.746
5397,17.112
5398,17.300
5399,16.954
5400,17.025
5401,16.529
5402,16.688
5403,16.767
5404,16.633
5405,16.538
5406,16.525
5407,16.833
5408,17.300
5409,17.258
5410,17.383
5411,17.388
5412,17.242
5413,17.092
5414,17.104
5415,17.279
5416,17.554
5417,17.546
5418,17.300
5419,17.154
5420,17.046
5421,16.938
5422,16.675
5423,16.629
5424,16.808
5425,16.688
5426,16.942
5427,17.138
5428,17.125
5429,17.379
5430,18.008
5431,18.233
5432,17.921
5433,17.508
5434,17.358
5435,17.204
5436,16.850
5437,16.750
5438,16.650
5439,17.050
5440,17.092
5441,16.954
5442,17.171
5443,17.279
5444,17.179
5445,17.008
5446,17.038
5447,16.992
5448,17.292
5449,17.225
5450,17.383
5451,17.475
5452,17.442
5453,17.121
5454,16.567
5455,16.296
5456,16.258
5457,16.279
5458,16.467
5459,16.388
5460,16.500
5461,16.663
5462,16.583
5463,16.350
5464,16.271
5465,15.921
5466,15.812
5467,16.096
5468,16.492
5469,16.646
5470,16.650
5471,16.604
5472,15.946
5473,15.471
5474,15.658
5475,15.554
5476,15.400
5477,15.425
5478,15.521
5479,15.767
5480,15.600
5481,15.529
5482,15.583
5483,15.538
5484,15.179
5485,14.975
5486,14.938
5487,14.975
5488,15.046
5489,14.975
5490,15.529
5491,15.254
5492,14.858
5493,14.717
5494,14.296
5495,14.250
5496,14.679
5497,14.829
5498,15.346
5499,15.571
5500,15.429
5501,15.283
5502,14.779
5503,14.683
5504,14.387
5505,14.262
5506,14.392
5507,14.417
5508,14.113
5509,14.113
5510,14.458
5511,14.613
5512,14.167
5513,14.129
5514,14.283
5515,14.262
5516,13.950
5517,14.017
5518,14.183
5519,14.396
5520,13.933
5521,13.583
5522,13.163
5523,13.012
5524,13.050
5525,12.762
5526,12.733
5527,13.075
5528,13.292
5529,13.012
5530,13.208
5531,13.108
5532,12.921
5533,13.008
5534,13.012
5535,13.262
5536,13.179
5537,13.129
5538,13.342
5539,13.442
5540,13.121
5541,12.796
5542,12.746
5543,12.783
5544,13.188
5545,13.171
5546,13.262
5547,13.562
5548,13.504
5549,13.217
5550,13.054
5551,13.196
5552,12.829
5553,12.658
5554,12.767
5555,13.133
5556,13.438
5557,13.608
5558,13.617
5559,13.558
5560,13.358
5561,13.250
5562,13.279
5563,13.254
5564,13.229
5565,13.254
5566,13.288
5567,13.442
5568,13.371
5569,13.113
5570,12.900
5571,12.879
5572,12.900
5573,12.913
5574,13.221
5575,13.663
5576,13.733
5577,13.400
5578,13.796
5579,14.004
5580,13.188
5581,12.863
5582,13.021
5583,12.883
5584,13.113
5585,13.121
5586,13.325
5587,13.238
5588,12.754
5589,12.617
5590,12.738
5591,12.904
5592,12.629
5593,12.525
5594,12.646
5595,12.671
5596,12.667
5597,12.704
5598,12.467
5599,12.346
5600,12.008
5601,11.900
5602,12.429
5603,12.654
5604,12.387
5605,12.587
5606,12.812
5607,12.913
5608,12.117
5609,11.829
5610,11.717
5611,11.779
5612,11.750
5613,12.275
5614,12.712
5615,12.825
5616,12.550
5617,12.312
5618,12.042
5619,11.992
5620,12.125
5621,12.413
5622,12.587
5623,12.904
5624,12.575
5625,12.346
5626,12.404
5627,12.317
5628,12.254
5629,12.179
5630,12.179
5631,12.029
5632,11.587
5633,11.475
5634,11.808
5635,12.071
5636,12.192
5637,12.479
5638,12.738
5639,12.558
5640,12.175
5641,11.988
5642,12.175
5643,12.238
5644,12.146
5645,12.258
5646,12.521
5647,12.583
5648,12.075
5649,11.800
5650,11.825
5651,11.825
5652,11.650
5653,11.413
5654,11.363
5655,11.421
5656,11.796
5657,11.933
5658,12.383
5659,12.546
5660,12.046
5661,11.671
5662,11.567
5663,11.604
5664,11.517
5665,11.604
5666,11.729
5667,11.604
5668,11.221
5669,10.821
5670,10.688
5671,10.867
5672,10.750
5673,10.842
5674,11.017
5675,11.117
5676,11.142
5677,11.004
5678,11.300
5679,11.675
5680,11.725
5681,11.538
5682,11.238
5683,11.000
5684,10.871
5685,11.046
5686,11.396
5687,11.613
5688,11.408
5689,11.204
5690,10.942
5691,10.904
5692,11.017
5693,11.083
5694,11.292
5695,11.529
5696,11.717
5697,11.579
5698,11.538
5699,11.450
5700,11.438
5701,11.637
5702,11.958
5703,11.975
5704,11.592
5705,11.317
5706,11.488
5707,11.550
5708,11.488
5709,11.562
5710,11.717
5711,11.667
5712,11.446
5713,11.196
5714,11.108
5715,11.121
5716,11.042
5717,11.029
5718,11.254
5719,11.454
5720,11.217
5721,11.317
5722,11.475
5723,11.600
5724,11.421
5725,11.358
5726,11.325
5727,11.663
5728,11.067
5729,10.929
5730,11.054
5731,11.071
5732,11.200
5733,11.396
5734,11.146
5735,11.033
5736,10.829
5737,10.837
5738,11.446
5739,11.608
5740,11.512
5741,11.387
5742,10.904
5743,10.567
5744,10.750
5745,10.717
5746,11.221
5747,11.317
5748,11.229
5749,10.863
5750,10.525
5751,10.800
5752,10.579
5753,10.458
5754,11.017
5755,11.283
5756,11.321
5757,11.308
5758,11.233
5759,11.196
5760,11.129
5761,10.879
5762,11.262
5763,11.288
5764,11.087
5765,11.017
5766,11.142
5767,11.067
5768,10.688
5769,10.438
5770,10.746
5771,10.821
5772,10.837
5773,11.000
5774,10.800
5775,10.804
5776,10.750
5777,10.700
5778,10.871
5779,10.883
5780,10.754
5781,10.554
5782,10.525
5783,10.442
5784,10.279
5785,10.113
5786,9.971
5787,10.008
5788,9.992
5789,10.267
5790,10.371
5791,10.408
5792,10.504
5793,10.383
5794,10.508
5795,10.875
5796,10.942
5797,10.858
5798,10.733
5799,10.871
5800,10.683
5801,10.325
5802,10.588
5803,10.588
5804,10.746
5805,10.858
5806,10.417
5807,10.517
5808,10.433
5809,10.396
5810,10.850
5811,11.175
5812,11.262
5813,11.312
5814,11.429
5815,11.450
5816,11.071
5817,10.883
5818,10.992
5819,11.367
5820,11.317
5821,11.179
5822,11.025
5823,10.988
5824,11.096
5825,10.771
5826,11.021
5827,10.996
5828,10.900
5829,11.200
5830,11.429
5831,11.579
5832,11.292
5833,11.167
5834,11.108
5835,11.296
5836,11.321
5837,11.333
5838,11.325
5839,11.337
5840,11.329
5841,10.942
5842,10.808
5843,10.883
5844,10.562
5845,10.500
5846,10.675
5847,10.758
5848,10.508
5849,10.467
5850,10.413
5851,10.700
5852,10.675
5853,10.525
5854,10.467
5855,10.167
5856,10.104
5857,9.938
5858,10.242
5859,10.542
5860,10.558
5861,10.646
5862,10.642
5863,10.317
5864,9.883
5865,9.671
5866,9.887
5867,10.012
5868,10.262
5869,10.550
5870,10.488
5871,10.375
5872,10.396
5873,10.467
5874,10.650
5875,10.846
5876,10.812
5877,10.683
5878,10.708
5879,10.654
5880,11.154
5881,11.008
5882,10.992
5883,10.967
5884,10.821
5885,10.433
5886,10.217
5887,10.304
5888,10.279
5889,10.417
5890,10.992
5891,11.004
5892,10.588
5893,10.425
5894,10.488
5895,10.088
5896,10.033
5897,9.788
5898,9.713
5899,9.850
5900,10.262
5901,10.550
5902,10.904
5903,11.104
5904,10.913
5905,10.425
5906,10.096
5907,10.246
5908,10.592
5909,10.879
5910,10.875
5911,10.883
5912,10.500
5913,10.217
5914,10.087
5915,10.100
5916,10.062
5917,10.113
5918,10.400
5919,10.700
5920,10.675
5921,10.425
5922,10.583
5923,10.933
5924,11.021
5925,10.621
5926,10.512
5927,10.712
5928,10.204
5929,9.729
5930,9.817
5931,10.204
5932,10.329
5933,10.129
5934,10.137
5935,10.288
5936,10.462
5937,10.387
5938,10.762
5939,11.038
5940,10.804
5941,10.479
5942,9.962
5943,9.938
5944,10.067
5945,10.079
5946,10.238
5947,10.137
5948,10.042
5949,9.979
5950,9.696
5951,9.758
5952,9.679
5953,9.717
5954,9.942
5955,10.342
5956,10.462
5957,10.450
5958,10.304
5959,10.367
5960,10.183
5961,9.792
5962,9.783
5963,10.058
5964,10.104
5965,10.042
5966,10.104
5967,10.117
5968,9.954
5969,10.167
5970,10.454
5971,10.704
5972,10.800
5973,10.688
5974,10.633
5975,10.929
5976,10.921
5977,10.433
5978,10.608
5979,10.921
5980,10.958
5981,10.608
5982,10.233
5983,10.300
5984,10.392
5985,10.442
5986,10.542
5987,10.654
5988,10.663
5989,10.650
5990,10.742
5991,10.654
5992,10.288
5993,9.942
5994,10.333
5995,10.433
5996,10.654
5997,10.879
5998,10.367
5999,10.629
6000,10.617
6001,10.592
6002,10.629
6003,10.517
6004,10.329
6005,10.317
6006,10.417
6007,10.650
6008,10.562
6009,10.454
6010,10.542
6011,10.567
6012,10.608
6013,10.358
6014,10.463
6015,10.663
6016,10.900
6017,10.896
6018,11.154
6019,11.125
6020,11.100
6021,11.425
6022,11.471
6023,11.492
6024,11.492
6025,11.096
6026,11.071
6027,11.329
6028,11.475
6029,11.208
6030,10.962
6031,10.967
6032,10.783
6033,10.883
6034,11.129
6035,11.217
6036,10.808
6037,10.546
6038,10.529
6039,10.550
6040,10.762
6041,10.708
6042,10.721
6043,10.808
6044,10.783
6045,10.846
6046,10.646
6047,10.642
6048,10.800
6049,10.425
6050,10.871
6051,11.008
6052,11.117
6053,11.179
6054,11.158
6055,11.300
6056,10.658
6057,10.367
6058,10.354
6059,10.642
6060,10.854
6061,11.004
6062,11.017
6063,10.979
6064,10.692
6065,10.538
6066,10.704
6067,10.867
6068,11.088
6069,11.238
6070,11.196
6071,11.033
6072,11.296
6073,10.746
6074,10.529
6075,10.667
6076,10.471
6077,10.533
6078,10.979
6079,11.354
6080,11.025
6081,10.750
6082,10.604
6083,10.400
6084,10.100
6085,9.958
6086,9.925
6087,9.846
6088,10.000
6089,9.842
6090,10.008
6091,10.158
6092,9.875
6093,9.650
6094,9.663
6095,9.700
6096,10.129
6097,10.150
6098,10.558
6099,10.796
6100,10.333
6101,9.733
6102,9.462
6103,9.542
6104,9.592
6105,9.467
6106,9.613
6107,9.938
6108,10.379
6109,10.404
6110,10.192
6111,10.279
6112,10.154
6113,10.079
6114,10.096
6115,10.246
6116,10.396
6117,10.358
6118,10.312
6119,10.425
6120,10.338
6121,10.050
6122,10.038
6123,10.088
6124,9.871
6125,9.896
6126,10.100
6127,10.025
6128,10.396
6129,10.433
6130,10.562
6131,10.575
6132,10.346
6133,10.221
6134,10.529
6135,10.967
6136,10.996
6137,10.796
6138,10.854
6139,10.917
6140,10.667
6141,10.417
6142,10.458
6143,10.654
6144,10.854
6145,10.488
6146,10.308
6147,10.408
6148,10.521
6149,10.546
6150,10.633
6151,10.767
6152,10.788
6153,10.567
6154,10.458
6155,10.583
6156,10.554
6157,10.542
6158,10.429
6159,10.438
6160,10.125
6161,9.733
6162,9.908
6163,10.208
6164,10.475
6165,10.650
6166,10.525
6167,10.625
6168,10.379
6169,10.342
6170,10.425
6171,10.425
6172,10.196
6173,10.008
6174,10.033
6175,10.408
6176,10.129
6177,10.017
6178,10.096
6179,10.108
6180,10.008
6181,10.033
6182,10.087
6183,10.137
6184,10.133
6185,9.908
6186,10.183
6187,10.421
6188,10.183
6189,9.908
6190,9.946
6191,10.442
6192,10.342
6193,10.154
6194,10.346
6195,10.233
6196,10.079
6197,10.267
6198,10.062
6199,10.067
6200,10.129
6201,10.179
6202,10.192
6203,10.192
6204,10.492
6205,10.417
6206,10.325
6207,10.196
6208,9.938
6209,9.758
6210,9.658
6211,9.746
6212,9.842
6213,9.867
6214,9.637
6215,9.425
6216,9.279
6217,9.004
6218,9.500
6219,10.012
6220,9.996
6221,10.071
6222,9.762
6223,9.725
6224,9.475
6225,9.250
6226,9.562
6227,10.087
6228,10.108
6229,10.133
6230,10.279
6231,10.121
6232,9.613
6233,9.238
6234,9.271
6235,9.679
6236,9.879
6237,9.817
6238,9.904
6239,10.087
6240,10.158
6241,9.954
6242,9.671
6243,9.671
6244,9.738
6245,9.788
6246,9.879
6247,10.012
6248,9.808
6249,9.462
6250,9.771
6251,9.933
6252,9.850
6253,9.875
6254,9.725
6255,9.938
6256,9.721
6257,9.858
6258,10.242
6259,10.417
6260,10.233
6261,9.821
6262,9.729
6263,9.550
6264,9.800
6265,9.917
6266,10.129
6267,10.117
6268,9.854
6269,9.479
6270,9.483
6271,9.571
6272,9.537
6273,9.250
6274,9.371
6275,9.733
6276,9.825
6277,9.725
6278,9.642
6279,9.442
6280,9.458
6281,9.429
6282,9.317
6283,9.342
6284,9.358
6285,9.183
6286,8.929
6287,8.817
6288,8.967
6289,8.692
6290,9.358
6291,9.333
6292,9.296
6293,9.421
6294,9.229
6295,9.371
6296,9.071
6297,9.158
6298,9.562
6299,9.887
6300,9.721
6301,9.371
6302,9.200
6303,9.250
6304,9.275
6305,9.075
6306,9.483
6307,9.571
6308,9.450
6309,9.562
6310,9.412
6311,9.287
6312,9.625
6313,9.387
6314,9.387
6315,9.575
6316,9.583
6317,9.521
6318,9.325
6319,9.300
6320,9.133
6321,9.258
6322,9.592
6323,9.679
6324,9.438
6325,9.312
6326,9.325
6327,9.150
6328,9.308
6329,9.146
6330,9.258
6331,9.621
6332,9.458
6333,9.183
6334,9.183
6335,9.446
6336,9.196
6337,9.071
6338,9.242
6339,9.254
6340,9.221
6341,9.321
6342,9.571
6343,9.821
6344,9.692
6345,9.304
6346,9.021
6347,9.008
6348,8.954
6349,8.642
6350,8.808
6351,8.983
6352,9.242
6353,9.271
6354,9.637
6355,9.887
6356,9.571
6357,9.233
6358,9.358
6359,9.646
6360,9.604
6361,9.267
6362,9.196
6363,9.258
6364,9.154
6365,9.017
6366,8.837
6367,9.125
6368,9.350
6369,9.037
6370,9.329
6371,9.854
6372,9.871
6373,9.808
6374,9.792
6375,9.554
6376,9.129
6377,8.779
6378,8.704
6379,9.117
6380,9.087
6381,9.062
6382,9.058
6383,9.083
6384,8.946
6385,8.583
6386,8.575
6387,8.725
6388,9.283
6389,9.621
6390,9.771
6391,9.871
6392,9.208
6393,8.558
6394,8.387
6395,8.387
6396,8.454
6397,8.704
6398,8.950
6399,9.375
6400,9.417
6401,9.292
6402,9.162
6403,9.012
6404,8.829
6405,8.879
6406,8.979
6407,8.983
6408,9.025
6409,8.958
6410,8.992
6411,9.117
6412,9.104
6413,8.767
6414,8.675
6415,8.758
6416,8.921
6417,8.892
6418,9.046
6419,9.104
6420,9.221
6421,9.204
6422,9.283
6423,9.221
6424,9.167
6425,8.967
6426,9.058
6427,9.146
6428,8.983
6429,8.871
6430,9.108
6431,9.271
6432,9.262
6433,9.087
6434,8.975
6435,8.962
6436,8.800
6437,8.637
6438,8.658
6439,8.600
6440,8.587
6441,8.467
6442,8.475
6443,8.625
6444,8.725
6445,8.613
6446,8.312
6447,8.196
6448,8.421
6449,8.333
6450,8.329
6451,8.404
6452,8.592
6453,8.754
6454,9.137
6455,9.312
6456,9.004
6457,8.767
6458,8.667
6459,8.554
6460,8.392
6461,8.329
6462,8.529
6463,8.904
6464,8.787
6465,8.537
6466,8.979
6467,9.229
6468,9.129
6469,8.967
6470,8.592
6471,8.479
6472,8.613
6473,8.400
6474,8.842
6475,8.979
6476,8.692
6477,8.542
6478,8.288
6479,8.225
6480,7.908
6481,8.158
6482,8.550
6483,8.837
6484,8.787
6485,8.512
6486,8.483
6487,8.637
6488,8.408
6489,8.162
6490,8.054
6491,8.150
6492,8.296
6493,8.283
6494,8.367
6495,8.329
6496,8.337
6497,8.100
6498,8.100
6499,8.212
6500,8.150
6501,7.938
6502,8.154
6503,8.525
6504,8.600
6505,8.083
6506,8.262
6507,8.175
6508,7.912
6509,7.987
6510,8.217
6511,8.479
6512,8.608
6513,8.358
6514,8.392
6515,8.379
6516,8.317
6517,8.379
6518,8.596
6519,8.783
6520,8.808
6521,8.363
6522,8.433
6523,8.608
6524,8.517
6525,8.429
6526,8.421
6527,8.583
6528,8.554
6529,8.558
6530,8.529
6531,8.604
6532,8.646
6533,8.771
6534,8.617
6535,8.308
6536,8.550
6537,8.454
6538,8.904
6539,8.979
6540,9.062
6541,8.738
6542,8.442
6543,8.379
6544,8.329
6545,8.479
6546,8.712
6547,8.788
6548,8.429
6549,8.304
6550,8.225
6551,8.029
6552,8.100
6553,8.129
6554,8.183
6555,8.433
6556,8.242
6557,7.879
6558,7.950
6559,8.171
6560,8.367
6561,8.492
6562,8.758
6563,8.583
6564,8.408
6565,8.333
6566,8.233
6567,8.196
6568,8.371
6569,8.083
6570,7.921
6571,8.033
6572,7.887
6573,8.250
6574,8.467
6575,8.492
6576,8.246
6577,7.808
6578,8.113
6579,8.250
6580,8.387
6581,8.488
6582,8.462
6583,8.521
6584,8.250
6585,8.083
6586,8.179
6587,8.417
6588,8.704
6589,8.342
6590,8.267
6591,8.592
6592,8.529
6593,8.554
6594,8.646
6595,8.671
6596,8.679
6597,8.617
6598,8.858
6599,9.346
6600,9.079
6601,8.592
6602,8.479
6603,8.592
6604,8.717
6605,8.779
6606,8.771
6607,9.171
6608,9.133
6609,9.108
6610,8.917
6611,9.042
6612,9.012
6613,9.062
6614,9.229
6615,9.342
6616,8.908
6617,9.008
6618,9.100
6619,9.075
6620,9.096
6621,9.046
6622,8.750
6623,8.438
6624,8.613
6625,8.537
6626,8.529
6627,8.629
6628,8.621
6629,8.608
6630,8.517
6631,8.333
6632,8.417
6633,8.121
6634,8.429
6635,8.704
6636,8.787
6637,8.675
6638,8.367
6639,8.379
6640,8.363
6641,8.238
6642,8.342
6643,8.554
6644,8.421
6645,8.308
6646,8.438
6647,8.700
6648,8.613
6649,8.300
6650,8.212
6651,8.288
6652,8.254
6653,8.104
6654,8.050
6655,7.900
6656,8.596
6657,8.508
6658,8.746
6659,8.821
6660,8.825
6661,8.537
6662,8.554
6663,8.704
6664,8.833
6665,8.321
6666,8.512
6667,8.750
6668,8.633
6669,8.396
6670,8.225
6671,8.350
6672,8.225
6673,8.425
6674,8.846
6675,9.008
6676,8.950
6677,8.912
6678,8.958
6679,8.958
6680,8.779
6681,8.354
6682,8.533
6683,9.008
6684,8.871
6685,8.496
6686,8.387
6687,8.188
6688,8.146
6689,8.158
6690,8.150
6691,8.387
6692,8.475
6693,8.637
6694,8.804
6695,8.792
6696,8.646
6697,8.258
6698,8.296
6699,8.183
6700,8.029
6701,8.292
6702,8.250
6703,8.175
6704,8.429
6705,8.604
6706,8.738
6707,8.637
6708,8.467
6709,8.317
6710,8.471
6711,8.596
6712,8.517
6713,8.392
6714,8.442
6715,8.754
6716,8.517
6717,8.317
6718,8.312
6719,8.387
6720,8.575
6721,8.600
6722,8.600
6723,8.562
6724,8.575
6725,8.350
6726,8.221
6727,8.071
