Distance_(pixels),Gray_Value
0,4.109
1,3.962
2,4.024
3,3.937
4,4.034
5,4.292
6,4.343
7,4.101
8,4.286
9,4.181
10,4.153
11,4.058
12,4.228
13,4.327
14,4.282
15,4.177
16,4.155
17,4.109
18,4.179
19,4.050
20,4.073
21,4.161
22,4.038
23,4.028
24,4.161
25,4.369
26,4.621
27,4.310
28,4.163
29,4.329
30,4.323
31,4.060
32,4.065
33,4.238
34,4.282
35,4.117
36,4.135
37,4.343
38,4.325
39,3.962
40,3.986
41,3.813
42,3.690
43,3.631
44,3.690
45,3.899
46,3.978
47,3.776
48,3.679
49,3.528
50,3.472
51,3.286
52,3.147
53,3.222
54,3.141
55,2.921
56,2.857
57,2.562
58,2.623
59,2.567
60,2.383
61,2.518
62,2.478
63,2.071
64,2.018
65,2.167
66,2.087
67,1.883
68,1.889
69,2.167
70,2.121
71,1.909
72,2.079
73,1.992
74,2.010
75,1.940
76,1.988
77,2.143
78,1.984
79,1.710
80,1.704
81,1.935
82,2.008
83,1.845
84,1.764
85,1.984
86,1.996
87,1.774
88,1.687
89,1.877
90,2.014
91,1.954
92,2.014
93,2.194
94,2.242
95,1.982
96,1.996
97,2.250
98,2.288
99,2.224
100,2.371
101,2.520
102,2.446
103,2.321
104,2.454
105,2.653
106,2.887
107,2.883
108,2.974
109,3.212
110,3.214
111,3.073
112,3.230
113,3.429
114,3.599
115,3.486
116,3.474
117,3.613
118,3.611
119,3.478
120,3.714
121,3.925
122,4.113
123,4.196
124,4.210
125,4.351
126,4.500
127,4.500
128,4.655
129,4.933
130,5.093
131,4.950
132,5.105
133,5.506
134,5.579
135,5.196
136,5.137
137,4.907
138,4.760
139,4.659
140,4.915
141,5.133
142,5.242
143,5.107
144,4.986
145,5.034
146,4.956
147,4.710
148,4.722
149,4.849
150,4.774
151,4.417
152,4.373
153,4.077
154,3.998
155,3.845
156,3.740
157,3.788
158,3.667
159,3.190
160,2.954
161,2.800
162,2.726
163,2.587
164,2.653
165,2.798
166,2.728
167,2.403
168,2.335
169,2.387
170,2.411
171,2.365
172,2.448
173,2.528
174,2.393
175,2.188
176,2.115
177,2.331
178,2.312
179,2.093
180,1.935
181,1.925
182,1.919
183,1.849
184,1.859
185,2.181
186,2.206
187,2.054
188,2.113
189,2.200
190,2.091
191,1.962
192,1.917
193,2.016
194,2.131
195,2.097
196,2.048
197,2.121
198,2.244
199,2.125
200,2.179
201,2.179
202,2.220
203,2.169
204,2.355
205,2.603
206,2.675
207,2.575
208,2.532
209,2.649
210,2.752
211,2.544
212,2.690
213,3.111
214,3.214
215,3.266
216,3.264
217,3.700
218,3.873
219,3.621
220,3.627
221,3.798
222,3.796
223,3.659
224,3.683
225,3.796
226,4.095
227,4.341
228,4.603
229,4.861
230,5.224
231,5.514
232,6.018
233,6.226
234,6.409
235,6.315
236,5.980
237,5.768
238,5.565
239,5.278
240,5.014
241,4.867
242,4.994
243,4.851
244,4.907
245,5.127
246,4.937
247,4.853
248,4.877
249,5.087
250,5.371
251,5.018
252,4.847
253,5.010
254,4.845
255,4.409
256,4.147
257,3.746
258,3.423
259,3.355
260,3.393
261,3.498
262,3.530
263,3.387
264,3.496
265,3.389
266,3.228
267,3.052
268,2.937
269,2.956
270,2.815
271,2.556
272,2.560
273,2.621
274,2.669
275,2.442
276,2.220
277,2.165
278,2.060
279,1.895
280,1.901
281,2.173
282,2.252
283,2.060
284,2.044
285,2.206
286,2.234
287,1.982
288,2.020
289,2.089
290,2.143
291,1.986
292,1.911
293,1.925
294,1.962
295,1.992
296,2.105
297,2.067
298,2.032
299,1.851
300,2.006
301,2.407
302,2.438
303,2.099
304,2.077
305,2.095
306,2.067
307,1.937
308,2.012
309,2.282
310,2.240
311,2.129
312,2.204
313,2.377
314,2.544
315,2.512
316,2.605
317,2.871
318,2.851
319,2.823
320,2.653
321,2.794
322,2.895
323,3.000
324,3.224
325,3.357
326,3.409
327,3.308
328,3.212
329,3.224
330,3.268
331,3.425
332,3.677
333,3.883
334,3.923
335,3.815
336,3.808
337,3.843
338,3.792
339,3.659
340,3.732
341,3.867
342,3.891
343,3.740
344,3.845
345,3.875
346,3.815
347,3.631
348,3.613
349,3.716
350,3.796
351,3.659
352,3.597
353,3.603
354,3.685
355,3.470
356,3.474
357,3.631
358,3.500
359,3.254
360,3.248
361,3.135
362,3.151
363,2.980
364,2.933
365,2.978
366,2.825
367,2.897
368,2.738
369,2.839
370,2.853
371,2.637
372,2.371
373,2.403
374,2.542
375,2.532
376,2.655
377,2.710
378,2.679
379,2.446
380,2.294
381,2.163
382,2.139
383,2.038
384,2.038
385,2.109
386,2.167
387,2.071
388,2.014
389,2.026
390,1.976
391,2.105
392,2.151
393,2.099
394,2.127
395,2.036
396,2.042
397,2.254
398,2.260
399,2.069
400,2.028
401,2.006
402,1.950
403,1.802
404,1.871
405,2.065
406,2.127
407,2.192
408,2.290
409,2.300
410,2.387
411,2.302
412,2.353
413,2.560
414,2.528
415,2.440
416,2.137
417,2.286
418,2.381
419,2.202
420,2.123
421,2.466
422,2.498
423,2.312
424,2.482
425,2.458
426,2.486
427,2.526
428,2.639
429,2.911
430,2.931
431,2.772
432,2.790
433,2.756
434,2.869
435,2.929
436,2.853
437,2.927
438,2.861
439,2.645
440,2.893
441,2.871
442,2.859
443,2.887
444,2.925
445,2.994
446,2.980
447,2.937
448,2.960
449,3.026
450,3.014
451,2.728
452,2.647
453,2.873
454,2.835
455,2.605
456,2.696
457,2.909
458,2.903
459,2.669
460,2.575
461,2.764
462,2.742
463,2.577
464,2.458
465,2.478
466,2.454
467,2.272
468,2.256
469,2.496
470,2.401
471,2.357
472,2.260
473,2.192
474,2.137
475,2.028
476,2.173
477,2.373
478,2.323
479,2.179
480,2.135
481,2.018
482,2.026
483,2.040
484,2.040
485,2.079
486,2.105
487,2.020
488,2.175
489,2.244
490,2.250
491,2.175
492,2.117
493,2.200
494,2.244
495,2.286
496,2.181
497,2.185
498,2.163
499,2.077
500,2.131
501,2.181
502,2.127
503,1.996
504,2.044
505,2.067
506,2.192
507,2.123
508,2.161
509,2.341
510,2.312
511,2.185
512,2.242
513,2.258
514,2.268
515,2.256
516,2.379
517,2.494
518,2.405
519,2.220
520,2.304
521,2.323
522,2.337
523,2.187
524,2.181
525,2.542
526,2.619
527,2.401
528,2.429
529,2.532
530,2.617
531,2.589
532,2.712
533,3.107
534,3.081
535,2.784
536,2.740
537,2.808
538,2.855
539,2.815
540,2.831
541,2.927
542,3.000
543,2.863
544,3.010
545,3.113
546,3.240
547,3.194
548,3.242
549,3.440
550,3.488
551,3.278
552,3.139
553,3.286
554,3.214
555,2.978
556,2.802
557,2.788
558,2.722
559,2.544
560,2.421
561,2.558
562,2.754
563,2.516
564,2.472
565,2.659
566,2.526
567,2.288
568,2.274
569,2.228
570,2.444
571,2.486
572,2.534
573,2.665
574,2.565
575,2.284
576,2.202
577,2.365
578,2.480
579,2.417
580,2.448
581,2.579
582,2.563
583,2.522
584,2.325
585,2.302
586,2.276
587,2.270
588,2.308
589,2.403
590,2.476
591,2.419
592,2.258
593,2.310
594,2.377
595,2.220
596,2.185
597,2.415
598,2.359
599,2.181
600,2.159
601,2.248
602,2.298
603,2.220
604,2.192
605,2.401
606,2.395
607,2.256
608,2.155
609,2.101
610,2.113
611,2.224
612,2.383
613,2.550
614,2.623
615,2.611
616,2.538
617,2.675
618,2.659
619,2.542
620,2.615
621,2.829
622,2.917
623,2.857
624,2.859
625,2.742
626,2.817
627,2.827
628,2.837
629,3.115
630,3.315
631,3.349
632,3.506
633,3.639
634,3.706
635,3.655
636,3.617
637,3.643
638,3.837
639,3.974
640,4.510
641,4.683
642,4.724
643,4.605
644,4.589
645,4.881
646,4.990
647,4.766
648,4.685
649,4.746
650,4.738
651,4.569
652,4.538
653,4.595
654,4.677
655,4.615
656,4.700
657,4.681
658,4.716
659,4.627
660,4.756
661,5.052
662,5.115
663,4.944
664,5.054
665,4.986
666,4.992
667,4.810
668,4.847
669,4.948
670,4.869
671,4.637
672,4.355
673,3.970
674,3.629
675,3.488
676,3.377
677,3.569
678,3.538
679,3.522
680,3.411
681,3.417
682,3.246
683,3.046
684,3.171
685,3.306
686,3.312
687,3.171
688,3.071
689,2.958
690,2.817
691,2.772
692,2.734
693,2.942
694,3.028
695,2.899
696,2.802
697,2.647
698,2.675
699,2.673
700,2.595
701,2.696
702,2.772
703,2.692
704,2.798
705,2.720
706,2.641
707,2.540
708,2.617
709,2.855
710,2.851
711,2.772
712,2.927
713,2.984
714,3.155
715,3.113
716,3.000
717,3.175
718,3.254
719,3.097
720,3.192
721,3.194
722,3.391
723,3.579
724,3.788
725,4.165
726,4.171
727,4.139
728,4.327
729,4.563
730,4.881
731,4.899
732,5.030
733,5.323
734,5.464
735,5.621
736,5.597
737,5.804
738,5.891
739,5.871
740,6.167
741,6.427
742,6.562
743,6.798
744,7.228
745,7.730
746,8.111
747,8.030
748,8.109
749,8.315
750,8.609
751,8.819
752,8.841
753,8.778
754,8.909
755,8.732
756,8.968
757,9.296
758,9.300
759,9.282
760,9.419
761,9.625
762,9.952
763,9.853
764,9.913
765,10.125
766,10.196
767,9.871
768,9.762
769,9.534
770,9.278
771,8.760
772,8.450
773,8.524
774,8.407
775,7.933
776,7.591
777,7.185
778,6.813
779,6.431
780,6.321
781,6.177
782,6.163
783,5.964
784,5.855
785,5.780
786,5.708
787,5.508
788,5.347
789,5.183
790,4.964
791,4.746
792,4.685
793,4.369
794,4.347
795,3.992
796,3.835
797,4.056
798,3.942
799,3.683
800,3.462
801,3.403
802,3.415
803,3.339
804,3.494
805,3.613
806,3.554
807,3.198
808,3.415
809,3.577
810,3.788
811,3.615
812,3.550
813,3.812
814,4.077
815,4.020
816,3.869
817,3.843
818,3.853
819,3.780
820,3.768
821,3.891
822,3.984
823,4.103
824,4.345
825,4.635
826,4.883
827,4.827
828,4.871
829,5.173
830,5.476
831,5.498
832,5.696
833,5.698
834,5.893
835,6.190
836,6.774
837,7.397
838,7.637
839,7.627
840,7.839
841,8.343
842,8.942
843,9.323
844,9.815
845,10.361
846,10.768
847,10.714
848,10.631
849,10.770
850,10.996
851,11.202
852,11.607
853,12.256
854,12.470
855,11.851
856,11.260
857,10.960
858,11.167
859,11.373
860,11.907
861,12.804
862,13.181
863,12.875
864,12.232
865,12.014
866,12.153
867,12.119
868,12.238
869,12.605
870,12.762
871,12.226
872,11.710
873,11.226
874,10.784
875,10.492
876,10.145
877,9.685
878,9.407
879,8.986
880,8.954
881,8.718
882,8.329
883,7.663
884,6.984
885,6.764
886,6.591
887,6.312
888,5.982
889,5.635
890,5.323
891,4.933
892,4.869
893,4.752
894,4.629
895,4.452
896,4.171
897,4.105
898,4.103
899,3.863
900,3.720
901,3.657
902,3.641
903,3.573
904,3.631
905,3.716
906,3.942
907,3.782
908,3.651
909,3.599
910,3.655
911,3.542
912,3.645
913,3.571
914,3.591
915,3.433
916,3.409
917,3.607
918,3.524
919,3.629
920,3.742
921,3.879
922,4.125
923,4.101
924,4.224
925,4.397
926,4.435
927,4.692
928,4.946
929,5.107
930,5.192
931,5.357
932,5.601
933,5.923
934,6.060
935,6.157
936,6.524
937,6.982
938,7.472
939,7.946
940,8.573
941,9.065
942,9.171
943,8.849
944,8.532
945,8.583
946,8.786
947,8.823
948,9.065
949,9.534
950,9.921
951,10.062
952,10.224
953,10.669
954,10.899
955,10.621
956,10.621
957,10.740
958,10.788
959,10.671
960,10.782
961,10.663
962,10.748
963,10.657
964,10.407
965,10.542
966,10.692
967,10.335
968,10.280
969,10.383
970,10.476
971,9.992
972,9.700
973,9.528
974,9.337
975,8.954
976,9.002
977,8.774
978,8.534
979,7.776
980,6.849
981,6.442
982,6.050
983,5.722
984,5.563
985,5.345
986,5.377
987,5.214
988,5.413
989,5.599
990,5.415
991,4.962
992,4.825
993,4.593
994,4.438
995,4.137
996,4.190
997,4.532
998,4.488
999,4.280
1000,4.268
1001,4.306
1002,4.298
1003,4.038
1004,3.899
1005,3.903
1006,3.796
1007,3.569
1008,3.573
1009,3.571
1010,3.565
1011,3.470
1012,3.351
1013,3.278
1014,3.312
1015,3.468
1016,3.560
1017,3.673
1018,3.718
1019,3.514
1020,3.605
1021,3.812
1022,3.905
1023,3.754
1024,3.730
1025,3.653
1026,3.903
1027,3.933
1028,3.978
1029,3.974
1030,4.067
1031,4.304
1032,4.321
1033,4.435
1034,4.611
1035,4.752
1036,4.946
1037,5.155
1038,5.232
1039,5.308
1040,5.492
1041,5.800
1042,6.123
1043,6.248
1044,6.264
1045,6.437
1046,6.474
1047,6.296
1048,6.411
1049,6.597
1050,6.903
1051,7.202
1052,7.468
1053,7.915
1054,8.127
1055,7.853
1056,7.766
1057,7.780
1058,7.923
1059,7.851
1060,7.800
1061,7.869
1062,7.744
1063,7.593
1064,7.567
1065,7.254
1066,7.272
1067,7.133
1068,7.137
1069,7.272
1070,7.250
1071,7.034
1072,7.036
1073,7.016
1074,7.024
1075,6.796
1076,6.619
1077,6.548
1078,6.460
1079,6.185
1080,6.018
1081,6.060
1082,6.028
1083,5.760
1084,5.589
1085,5.667
1086,5.548
1087,5.175
1088,4.913
1089,4.752
1090,4.589
1091,4.433
1092,4.363
1093,4.188
1094,4.024
1095,3.954
1096,3.587
1097,3.665
1098,3.659
1099,3.381
1100,3.234
1101,3.234
1102,3.268
1103,3.161
1104,3.353
1105,3.317
1106,3.341
1107,3.387
1108,3.210
1109,3.177
1110,3.069
1111,3.052
1112,3.196
1113,3.268
1114,3.361
1115,3.288
1116,3.266
1117,3.175
1118,3.218
1119,3.103
1120,3.058
1121,3.077
1122,3.218
1123,3.210
1124,3.286
1125,3.444
1126,3.379
1127,3.153
1128,3.216
1129,3.323
1130,3.603
1131,3.627
1132,3.645
1133,3.685
1134,3.675
1135,3.607
1136,3.343
1137,3.500
1138,3.571
1139,3.403
1140,3.534
1141,3.796
1142,3.889
1143,3.778
1144,3.776
1145,3.857
1146,4.022
1147,3.901
1148,3.879
1149,4.123
1150,4.103
1151,3.950
1152,4.002
1153,3.986
1154,4.109
1155,4.107
1156,4.129
1157,4.238
1158,4.129
1159,4.075
1160,4.188
1161,4.236
1162,4.212
1163,4.240
1164,4.327
1165,4.460
1166,4.401
1167,4.379
1168,4.179
1169,4.276
1170,4.351
1171,4.230
1172,4.292
1173,4.194
1174,4.065
1175,3.889
1176,3.825
1177,3.875
1178,4.062
1179,3.998
1180,3.885
1181,3.988
1182,4.044
1183,3.853
1184,3.657
1185,3.754
1186,3.714
1187,3.720
1188,3.786
1189,3.698
1190,3.385
1191,3.315
1192,3.450
1193,3.413
1194,3.435
1195,3.468
1196,3.516
1197,3.516
1198,3.516
1199,3.317
1200,3.353
1201,3.333
1202,3.216
1203,3.228
1204,3.337
1205,3.413
1206,3.452
1207,3.361
1208,3.385
1209,3.206
1210,3.175
1211,3.073
1212,3.202
1213,3.444
1214,3.456
1215,3.429
1216,3.200
1217,3.294
1218,3.357
1219,3.367
1220,3.421
1221,3.407
1222,3.258
1223,3.183
1224,3.202
1225,3.232
1226,3.474
1227,3.385
1228,3.512
1229,3.627
1230,3.692
1231,3.758
1232,3.813
1233,3.877
1234,3.909
1235,3.653
1236,3.472
1237,3.669
1238,3.724
1239,3.887
1240,4.022
1241,4.250
1242,4.518
1243,4.427
1244,4.391
1245,4.488
1246,4.677
1247,4.851
1248,4.954
1249,5.188
1250,5.302
1251,5.149
1252,5.135
1253,5.323
1254,5.544
1255,5.647
1256,5.571
1257,5.633
1258,5.821
1259,5.869
1260,6.034
1261,6.214
1262,6.117
1263,5.986
1264,6.089
1265,6.260
1266,6.335
1267,6.383
1268,6.542
1269,6.631
1270,6.607
1271,6.577
1272,6.681
1273,6.728
1274,6.786
1275,6.569
1276,6.585
1277,6.601
1278,6.645
1279,6.520
1280,6.361
1281,6.103
1282,6.052
1283,6.042
1284,5.925
1285,5.998
1286,6.071
1287,5.792
1288,5.919
1289,5.851
1290,5.710
1291,5.478
1292,5.357
1293,5.171
1294,4.968
1295,4.663
1296,4.478
1297,4.359
1298,4.375
1299,4.268
1300,4.087
1301,4.079
1302,4.014
1303,3.853
1304,3.865
1305,4.071
1306,4.284
1307,4.228
1308,4.175
1309,4.228
1310,4.000
1311,3.879
1312,3.669
1313,3.704
1314,3.784
1315,3.817
1316,3.815
1317,3.921
1318,3.823
1319,3.782
1320,3.831
1321,3.976
1322,4.325
1323,4.244
1324,4.234
1325,4.395
1326,4.518
1327,4.565
1328,4.800
1329,4.950
1330,5.095
1331,4.950
1332,5.014
1333,5.202
1334,5.256
1335,5.179
1336,5.359
1337,5.669
1338,5.901
1339,5.946
1340,6.268
1341,6.792
1342,7.063
1343,7.020
1344,7.135
1345,7.359
1346,7.552
1347,7.645
1348,7.776
1349,8.327
1350,9.087
1351,9.540
1352,10.006
1353,10.329
1354,10.696
1355,10.720
1356,11.032
1357,11.792
1358,12.700
1359,12.950
1360,13.605
1361,13.972
1362,14.579
1363,14.591
1364,14.581
1365,14.899
1366,14.988
1367,14.891
1368,14.675
1369,14.841
1370,14.982
1371,14.659
1372,14.159
1373,13.940
1374,13.756
1375,13.450
1376,13.220
1377,13.359
1378,13.550
1379,13.431
1380,13.454
1381,13.625
1382,13.871
1383,13.704
1384,13.536
1385,13.131
1386,12.615
1387,11.887
1388,11.266
1389,10.643
1390,10.381
1391,9.996
1392,9.698
1393,9.165
1394,8.667
1395,8.315
1396,8.391
1397,8.490
1398,8.486
1399,8.230
1400,8.165
1401,8.115
1402,8.052
1403,7.385
1404,6.768
1405,6.379
1406,6.071
1407,5.883
1408,5.970
1409,5.960
1410,5.909
1411,5.802
1412,5.706
1413,5.724
1414,5.615
1415,5.437
1416,5.151
1417,5.016
1418,5.024
1419,5.016
1420,5.123
1421,5.395
1422,5.395
1423,5.403
1424,5.534
1425,5.486
1426,5.363
1427,5.395
1428,5.486
1429,5.696
1430,5.690
1431,5.708
1432,5.655
1433,6.024
1434,6.581
1435,6.821
1436,7.278
1437,7.938
1438,8.383
1439,8.714
1440,9.119
1441,9.798
1442,10.796
1443,11.472
1444,12.240
1445,13.040
1446,13.603
1447,13.978
1448,14.232
1449,14.813
1450,15.405
1451,15.724
1452,16.111
1453,16.621
1454,16.984
1455,16.843
1456,16.766
1457,16.877
1458,17.385
1459,17.901
1460,18.835
1461,20.038
1462,21.377
1463,21.938
1464,22.417
1465,22.633
1466,22.815
1467,22.065
1468,21.484
1469,21.115
1470,20.851
1471,20.627
1472,20.794
1473,20.623
1474,20.627
1475,20.264
1476,19.942
1477,19.946
1478,20.052
1479,19.764
1480,19.470
1481,18.958
1482,18.772
1483,18.524
1484,18.327
1485,17.958
1486,17.488
1487,17.105
1488,17.202
1489,16.631
1490,16.123
1491,15.819
1492,15.806
1493,15.966
1494,15.873
1495,15.512
1496,15.099
1497,15.046
1498,14.927
1499,14.444
1500,13.942
1501,13.458
1502,12.823
1503,12.343
1504,11.905
1505,11.466
1506,11.085
1507,9.762
1508,8.468
1509,7.339
1510,6.522
1511,6.349
1512,6.401
1513,6.425
1514,6.613
1515,6.385
1516,6.401
1517,6.635
1518,6.450
1519,6.026
1520,5.847
1521,5.825
1522,5.978
1523,6.004
1524,6.022
1525,6.179
1526,6.308
1527,6.331
1528,6.629
1529,6.927
1530,7.381
1531,7.599
1532,7.923
1533,8.429
1534,8.873
1535,9.226
1536,9.563
1537,10.452
1538,11.625
1539,12.923
1540,14.317
1541,15.238
1542,15.815
1543,15.954
1544,16.077
1545,16.911
1546,17.754
1547,18.310
1548,19.143
1549,20.044
1550,20.766
1551,21.077
1552,21.062
1553,21.613
1554,22.266
1555,22.075
1556,21.784
1557,22.018
1558,22.629
1559,22.942
1560,23.337
1561,23.794
1562,24.133
1563,23.911
1564,23.804
1565,23.839
1566,23.869
1567,23.704
1568,23.673
1569,23.562
1570,23.921
1571,24.190
1572,24.321
1573,24.667
1574,24.788
1575,24.212
1576,24.163
1577,23.415
1578,22.968
1579,22.800
1580,22.942
1581,23.141
1582,23.262
1583,22.738
1584,21.831
1585,21.567
1586,21.315
1587,20.802
1588,20.516
1589,20.222
1590,19.865
1591,19.631
1592,19.474
1593,19.234
1594,19.153
1595,18.639
1596,17.756
1597,16.980
1598,16.117
1599,15.254
1600,14.736
1601,14.145
1602,13.500
1603,12.389
1604,11.308
1605,10.524
1606,9.702
1607,8.772
1608,8.069
1609,7.498
1610,7.357
1611,7.069
1612,7.117
1613,6.984
1614,7.087
1615,6.877
1616,6.593
1617,6.427
1618,6.589
1619,6.675
1620,6.643
1621,6.484
1622,6.401
1623,6.216
1624,6.246
1625,6.415
1626,6.603
1627,6.667
1628,6.917
1629,7.286
1630,7.556
1631,7.591
1632,7.869
1633,8.157
1634,8.643
1635,9.236
1636,10.022
1637,10.962
1638,11.831
1639,12.389
1640,13.226
1641,13.752
1642,14.885
1643,15.605
1644,16.375
1645,17.355
1646,18.228
1647,18.409
1648,18.208
1649,18.496
1650,18.968
1651,19.022
1652,19.361
1653,19.724
1654,20.083
1655,20.331
1656,20.724
1657,21.095
1658,21.714
1659,21.940
1660,22.012
1661,21.956
1662,21.988
1663,22.006
1664,22.286
1665,22.419
1666,22.851
1667,22.853
1668,22.962
1669,23.101
1670,23.260
1671,23.188
1672,23.085
1673,23.143
1674,23.371
1675,23.131
1676,22.887
1677,22.827
1678,22.393
1679,21.927
1680,21.657
1681,21.252
1682,20.841
1683,20.667
1684,20.496
1685,20.399
1686,20.228
1687,19.917
1688,19.183
1689,18.415
1690,17.706
1691,16.891
1692,16.280
1693,15.639
1694,15.264
1695,14.929
1696,14.746
1697,14.655
1698,14.488
1699,13.589
1700,12.306
1701,11.107
1702,9.871
1703,9.044
1704,8.679
1705,8.046
1706,7.690
1707,6.956
1708,6.510
1709,6.085
1710,5.645
1711,5.448
1712,5.524
1713,5.512
1714,5.595
1715,5.218
1716,5.147
1717,5.421
1718,5.427
1719,5.504
1720,5.514
1721,5.381
1722,5.383
1723,5.522
1724,5.829
1725,6.306
1726,6.429
1727,6.417
1728,6.325
1729,6.470
1730,6.419
1731,6.345
1732,6.272
1733,6.569
1734,6.901
1735,7.165
1736,7.607
1737,7.929
1738,8.389
1739,8.714
1740,9.155
1741,9.933
1742,10.611
1743,10.831
1744,11.125
1745,11.700
1746,12.440
1747,12.768
1748,13.153
1749,13.798
1750,14.242
1751,14.010
1752,14.000
1753,14.048
1754,14.278
1755,14.339
1756,14.484
1757,14.690
1758,14.927
1759,15.002
1760,15.153
1761,15.440
1762,15.754
1763,15.788
1764,16.075
1765,16.427
1766,16.835
1767,17.014
1768,17.020
1769,17.405
1770,17.659
1771,17.018
1772,16.391
1773,16.022
1774,15.677
1775,15.264
1776,14.627
1777,14.198
1778,13.802
1779,13.415
1780,13.131
1781,12.978
1782,12.758
1783,12.516
1784,12.532
1785,12.601
1786,12.758
1787,12.595
1788,12.474
1789,12.462
1790,12.365
1791,11.722
1792,11.099
1793,10.115
1794,9.365
1795,8.774
1796,8.032
1797,7.647
1798,7.296
1799,6.851
1800,6.601
1801,6.185
1802,5.950
1803,5.714
1804,5.690
1805,5.716
1806,5.857
1807,5.837
1808,5.889
1809,5.728
1810,5.677
1811,5.514
1812,5.383
1813,5.256
1814,5.063
1815,5.052
1816,5.125
1817,5.222
1818,5.313
1819,5.246
1820,5.361
1821,5.488
1822,5.452
1823,5.339
1824,4.988
1825,4.962
1826,5.046
1827,5.190
1828,5.349
1829,5.440
1830,5.407
1831,5.351
1832,5.520
1833,5.294
1834,5.276
1835,5.421
1836,5.665
1837,5.948
1838,6.133
1839,6.163
1840,6.085
1841,6.246
1842,6.484
1843,6.536
1844,6.591
1845,6.877
1846,6.960
1847,6.903
1848,7.016
1849,7.105
1850,7.534
1851,7.615
1852,7.563
1853,7.659
1854,7.635
1855,7.611
1856,7.268
1857,7.151
1858,7.282
1859,7.365
1860,7.383
1861,7.464
1862,7.357
1863,7.458
1864,7.494
1865,7.248
1866,7.363
1867,7.345
1868,7.179
1869,7.377
1870,7.536
1871,7.222
1872,6.839
1873,6.681
1874,6.688
1875,6.534
1876,6.528
1877,6.435
1878,6.091
1879,5.720
1880,6.046
1881,5.919
1882,5.998
1883,5.821
1884,5.681
1885,5.690
1886,5.454
1887,5.236
1888,5.183
1889,5.254
1890,5.183
1891,5.123
1892,5.218
1893,5.421
1894,5.204
1895,4.962
1896,4.730
1897,4.488
1898,4.770
1899,4.901
1900,5.161
1901,5.560
1902,5.367
1903,5.234
1904,4.954
1905,5.010
1906,5.202
1907,5.137
1908,5.002
1909,5.069
1910,5.286
1911,5.321
1912,5.206
1913,5.183
1914,5.192
1915,5.274
1916,5.262
1917,5.278
1918,5.329
1919,5.288
1920,5.504
1921,5.704
1922,5.982
1923,6.022
1924,6.224
1925,6.327
1926,6.238
1927,6.268
1928,6.556
1929,6.619
1930,6.744
1931,6.929
1932,7.117
1933,7.190
1934,7.306
1935,7.288
1936,7.274
1937,7.437
1938,7.538
1939,7.808
1940,7.998
1941,8.274
1942,8.391
1943,8.482
1944,8.558
1945,8.855
1946,9.339
1947,9.617
1948,9.895
1949,10.087
1950,10.218
1951,10.353
1952,10.071
1953,10.206
1954,10.331
1955,10.202
1956,9.980
1957,10.113
1958,10.286
1959,10.290
1960,10.226
1961,10.008
1962,10.083
1963,10.087
1964,10.163
1965,10.341
1966,10.490
1967,10.369
1968,10.290
1969,10.230
1970,10.190
1971,10.044
1972,9.990
1973,10.056
1974,10.137
1975,9.958
1976,9.990
1977,9.964
1978,9.933
1979,9.589
1980,9.341
1981,9.248
1982,9.266
1983,9.250
1984,8.956
1985,8.901
1986,9.012
1987,9.000
1988,8.710
1989,8.530
1990,8.391
1991,8.206
1992,7.972
1993,7.986
1994,8.206
1995,7.935
1996,7.738
1997,7.756
1998,7.488
1999,7.179
2000,6.970
2001,6.647
2002,6.863
2003,6.810
2004,6.726
2005,6.927
2006,7.036
2007,6.984
2008,6.998
2009,6.998
2010,6.859
2011,6.786
2012,6.810
2013,6.919
2014,7.048
2015,7.115
2016,6.978
2017,6.938
2018,7.115
2019,7.248
2020,7.552
2021,7.839
2022,8.042
2023,8.317
2024,8.738
2025,9.095
2026,9.798
2027,10.042
2028,10.369
2029,11.153
2030,11.901
2031,12.393
2032,12.550
2033,13.335
2034,14.236
2035,14.827
2036,15.538
2037,16.367
2038,17.127
2039,17.623
2040,18.123
2041,18.988
2042,20.004
2043,20.669
2044,21.617
2045,22.692
2046,23.421
2047,23.478
2048,23.476
2049,23.599
2050,23.952
2051,24.137
2052,24.480
2053,24.831
2054,25.107
2055,24.982
2056,25.131
2057,25.486
2058,26.040
2059,25.929
2060,26.042
2061,26.296
2062,26.361
2063,26.067
2064,25.883
2065,25.722
2066,25.889
2067,25.853
2068,25.724
2069,25.913
2070,26.187
2071,25.790
2072,25.821
2073,25.417
2074,25.294
2075,24.938
2076,24.448
2077,24.157
2078,24.196
2079,23.891
2080,23.450
2081,23.415
2082,23.208
2083,22.528
2084,22.062
2085,21.585
2086,21.192
2087,20.732
2088,20.546
2089,20.639
2090,20.643
2091,19.982
2092,19.143
2093,17.861
2094,16.468
2095,15.633
2096,14.982
2097,14.196
2098,13.349
2099,12.698
2100,12.339
2101,11.909
2102,11.244
2103,10.581
2104,10.284
2105,9.756
2106,9.734
2107,9.667
2108,9.601
2109,9.778
2110,9.861
2111,9.688
2112,9.562
2113,9.563
2114,9.798
2115,9.903
2116,10.024
2117,10.581
2118,11.292
2119,11.685
2120,12.482
2121,12.984
2122,13.679
2123,14.315
2124,15.129
2125,16.492
2126,17.698
2127,18.575
2128,19.365
2129,20.427
2130,21.562
2131,22.522
2132,23.734
2133,24.827
2134,25.810
2135,26.254
2136,26.663
2137,27.097
2138,27.962
2139,28.431
2140,29.135
2141,29.633
2142,29.855
2143,30.032
2144,30.635
2145,31.282
2146,32.129
2147,32.127
2148,32.016
2149,32.224
2150,32.498
2151,32.540
2152,32.806
2153,33.006
2154,33.375
2155,33.550
2156,33.883
2157,34.042
2158,34.171
2159,34.103
2160,34.238
2161,34.300
2162,34.635
2163,34.506
2164,34.409
2165,34.831
2166,35.490
2167,35.331
2168,35.367
2169,35.242
2170,35.099
2171,34.363
2172,33.585
2173,33.153
2174,32.804
2175,32.512
2176,32.304
2177,31.863
2178,31.752
2179,31.494
2180,31.308
2181,31.302
2182,31.252
2183,30.796
2184,30.438
2185,30.058
2186,29.823
2187,29.089
2188,27.996
2189,27.347
2190,26.724
2191,25.591
2192,25.081
2193,23.794
2194,22.938
2195,22.077
2196,21.411
2197,20.595
2198,19.962
2199,19.216
2200,18.454
2201,16.970
2202,15.492
2203,13.742
2204,12.355
2205,11.331
2206,10.694
2207,10.427
2208,10.637
2209,10.494
2210,10.748
2211,10.780
2212,10.877
2213,11.272
2214,11.714
2215,11.871
2216,12.192
2217,12.718
2218,13.623
2219,14.210
2220,14.784
2221,15.677
2222,16.379
2223,16.411
2224,16.639
2225,17.494
2226,18.534
2227,19.738
2228,21.254
2229,22.651
2230,23.677
2231,24.738
2232,26.399
2233,27.847
2234,29.585
2235,30.740
2236,31.790
2237,33.302
2238,34.722
2239,34.835
2240,34.643
2241,34.698
2242,35.075
2243,35.147
2244,35.506
2245,36.288
2246,37.093
2247,37.375
2248,37.839
2249,38.369
2250,38.891
2251,39.280
2252,39.448
2253,39.710
2254,40.224
2255,39.899
2256,39.716
2257,40.222
2258,40.716
2259,40.673
2260,40.675
2261,41.014
2262,41.371
2263,40.984
2264,40.661
2265,40.532
2266,40.605
2267,40.244
2268,39.728
2269,39.591
2270,39.087
2271,38.200
2272,37.615
2273,37.635
2274,37.942
2275,37.690
2276,37.242
2277,36.857
2278,36.484
2279,35.790
2280,34.998
2281,34.458
2282,33.968
2283,33.097
2284,32.109
2285,31.196
2286,30.321
2287,29.637
2288,29.020
2289,28.091
2290,27.113
2291,26.054
2292,25.292
2293,24.657
2294,23.960
2295,23.192
2296,22.659
2297,21.403
2298,20.369
2299,18.992
2300,18.058
2301,16.790
2302,15.514
2303,14.242
2304,13.252
2305,12.183
2306,11.550
2307,11.099
2308,10.897
2309,10.917
2310,11.079
2311,11.437
2312,12.113
2313,12.970
2314,14.224
2315,14.718
2316,15.282
2317,16.115
2318,16.994
2319,17.655
2320,18.099
2321,18.817
2322,19.982
2323,21.077
2324,22.359
2325,23.696
2326,24.933
2327,25.726
2328,26.492
2329,27.256
2330,28.373
2331,29.077
2332,30.002
2333,31.077
2334,31.976
2335,32.635
2336,32.810
2337,33.427
2338,34.363
2339,34.603
2340,34.837
2341,35.278
2342,35.833
2343,36.452
2344,36.915
2345,37.192
2346,37.442
2347,37.639
2348,37.887
2349,38.452
2350,38.853
2351,38.605
2352,38.444
2353,37.903
2354,37.821
2355,37.944
2356,38.272
2357,38.534
2358,38.607
2359,39.032
2360,39.454
2361,39.562
2362,39.948
2363,39.935
2364,40.067
2365,39.599
2366,38.687
2367,37.712
2368,36.413
2369,35.466
2370,35.052
2371,34.085
2372,33.123
2373,32.750
2374,32.355
2375,31.905
2376,31.411
2377,30.780
2378,30.147
2379,29.278
2380,28.413
2381,27.923
2382,27.524
2383,26.859
2384,26.321
2385,25.506
2386,24.972
2387,24.153
2388,23.425
2389,22.387
2390,21.097
2391,20.280
2392,19.760
2393,18.665
2394,17.544
2395,16.456
2396,15.433
2397,14.462
2398,13.345
2399,12.558
2400,12.044
2401,11.234
2402,10.716
2403,10.405
2404,10.272
2405,9.829
2406,9.556
2407,9.117
2408,9.063
2409,8.859
2410,8.917
2411,8.968
2412,9.290
2413,9.728
2414,10.266
2415,10.875
2416,11.657
2417,12.677
2418,14.046
2419,14.944
2420,15.980
2421,16.996
2422,18.014
2423,19.101
2424,20.276
2425,21.645
2426,23.345
2427,23.855
2428,23.907
2429,24.268
2430,24.738
2431,24.980
2432,25.220
2433,25.456
2434,25.837
2435,25.855
2436,25.780
2437,25.978
2438,26.351
2439,26.440
2440,26.921
2441,27.339
2442,27.815
2443,28.040
2444,28.363
2445,28.560
2446,28.615
2447,28.435
2448,28.085
2449,28.240
2450,28.581
2451,28.756
2452,28.627
2453,28.510
2454,28.466
2455,28.496
2456,28.595
2457,28.478
2458,28.512
2459,28.153
2460,27.593
2461,27.175
2462,26.923
2463,26.357
2464,25.732
2465,24.956
2466,24.470
2467,24.167
2468,23.766
2469,23.260
2470,22.617
2471,21.490
2472,20.476
2473,19.103
2474,18.488
2475,17.685
2476,16.982
2477,16.143
2478,15.153
2479,14.022
2480,13.343
2481,11.946
2482,11.069
2483,10.399
2484,9.901
2485,9.720
2486,9.673
2487,9.389
2488,9.077
2489,8.758
2490,8.774
2491,8.595
2492,8.675
2493,8.671
2494,8.367
2495,8.123
2496,7.774
2497,7.510
2498,7.262
2499,7.000
2500,6.883
2501,6.919
2502,7.044
2503,7.062
2504,7.065
2505,7.123
2506,7.200
2507,7.266
2508,7.335
2509,7.365
2510,7.401
2511,7.365
2512,7.399
2513,7.577
2514,7.740
2515,7.742
2516,7.786
2517,7.929
2518,7.998
2519,8.024
2520,8.274
2521,8.381
2522,8.681
2523,8.790
2524,8.812
2525,9.105
2526,9.224
2527,9.137
2528,8.917
2529,8.915
2530,8.931
2531,8.855
2532,8.835
2533,8.871
2534,8.835
2535,8.921
2536,8.873
2537,8.921
2538,9.139
2539,8.962
2540,8.639
2541,8.675
2542,8.683
2543,8.407
2544,8.171
2545,7.964
2546,7.893
2547,7.837
2548,7.704
2549,7.593
2550,7.357
2551,7.069
2552,6.909
2553,6.901
2554,7.010
2555,7.010
2556,7.022
2557,7.071
2558,6.891
2559,6.766
2560,6.593
2561,6.526
2562,6.571
2563,6.591
2564,6.629
2565,6.770
2566,6.919
2567,6.740
2568,6.381
2569,6.325
2570,6.470
2571,6.468
2572,6.236
2573,6.212
2574,6.298
2575,6.260
2576,6.236
2577,6.280
2578,6.411
2579,6.387
2580,6.268
2581,6.167
2582,6.208
2583,6.200
2584,6.232
2585,6.135
2586,6.450
2587,6.407
2588,6.206
2589,6.210
2590,6.218
2591,6.218
2592,5.988
2593,5.863
2594,6.036
2595,6.046
2596,6.040
2597,6.306
2598,6.536
2599,6.502
2600,6.510
2601,6.488
2602,6.685
2603,6.607
2604,6.613
2605,6.821
2606,6.839
2607,6.770
2608,6.524
2609,6.357
2610,6.363
2611,6.304
2612,6.304
2613,6.601
2614,6.843
2615,6.772
2616,7.054
2617,7.137
2618,7.484
2619,7.782
2620,7.810
2621,8.036
2622,8.208
2623,8.091
2624,8.006
2625,8.020
2626,8.054
2627,8.194
2628,8.494
2629,8.732
2630,9.081
2631,9.294
2632,9.917
2633,10.776
2634,11.877
2635,12.536
2636,13.187
2637,13.937
2638,14.419
2639,14.683
2640,14.899
2641,14.980
2642,15.494
2643,15.825
2644,16.232
2645,16.712
2646,17.081
2647,17.462
2648,17.633
2649,18.113
2650,19.073
2651,19.492
2652,19.508
2653,19.885
2654,20.250
2655,20.212
2656,20.228
2657,20.496
2658,20.956
2659,20.992
2660,20.835
2661,20.869
2662,20.774
2663,20.399
2664,20.415
2665,20.260
2666,20.534
2667,20.355
2668,20.034
2669,20.020
2670,19.960
2671,19.806
2672,20.000
2673,20.052
2674,20.206
2675,20.018
2676,19.778
2677,19.954
2678,20.127
2679,19.819
2680,19.196
2681,18.006
2682,16.952
2683,15.921
2684,14.762
2685,13.776
2686,13.183
2687,12.405
2688,12.187
2689,11.381
2690,10.768
2691,10.313
2692,10.308
2693,10.300
2694,10.425
2695,10.530
2696,10.486
2697,10.425
2698,10.367
2699,10.405
2700,10.433
2701,10.496
2702,10.786
2703,11.034
2704,11.629
2705,12.095
2706,12.746
2707,13.800
2708,15.125
2709,16.847
2710,18.468
2711,19.681
2712,20.486
2713,21.093
2714,21.855
2715,22.252
2716,22.762
2717,23.240
2718,23.933
2719,24.550
2720,25.222
2721,26.010
2722,27.296
2723,28.306
2724,29.063
2725,30.234
2726,31.218
2727,31.708
2728,32.155
2729,32.466
2730,33.351
2731,34.179
2732,35.151
2733,36.571
2734,37.835
2735,37.812
2736,37.458
2737,37.651
2738,38.438
2739,38.778
2740,38.986
2741,39.881
2742,40.871
2743,41.361
2744,41.998
2745,42.585
2746,43.310
2747,43.317
2748,43.272
2749,43.506
2750,44.060
2751,44.411
2752,44.857
2753,45.169
2754,45.494
2755,45.113
2756,44.605
2757,44.256
2758,44.188
2759,43.853
2760,43.738
2761,43.308
2762,43.121
2763,42.877
2764,42.127
2765,41.532
2766,40.907
2767,39.804
2768,39.010
2769,38.135
2770,37.569
2771,36.552
2772,35.609
2773,35.042
2774,34.677
2775,34.032
2776,33.821
2777,32.861
2778,32.196
2779,30.847
2780,29.692
2781,28.482
2782,27.506
2783,26.808
2784,26.579
2785,25.821
2786,24.607
2787,23.046
2788,21.597
2789,20.151
2790,18.937
2791,18.002
2792,17.194
2793,16.407
2794,16.067
2795,15.827
2796,15.865
2797,16.272
2798,16.881
2799,17.962
2800,19.657
2801,21.081
2802,22.724
2803,24.020
2804,25.317
2805,26.865
2806,28.063
2807,29.123
2808,30.119
2809,31.232
2810,32.895
2811,34.270
2812,36.002
2813,37.268
2814,38.139
2815,38.859
2816,39.766
2817,40.889
2818,42.258
2819,43.123
2820,43.931
2821,44.911
2822,45.752
2823,46.181
2824,46.825
2825,47.403
2826,48.379
2827,49.313
2828,50.619
2829,52.526
2830,54.153
2831,55.137
2832,55.706
2833,56.262
2834,56.982
2835,56.935
2836,56.724
2837,56.875
2838,57.452
2839,58.016
2840,58.792
2841,59.387
2842,60.375
2843,60.766
2844,60.921
2845,60.829
2846,60.651
2847,60.075
2848,59.383
2849,59.173
2850,59.427
2851,59.042
2852,58.667
2853,58.692
2854,58.919
2855,58.867
2856,58.643
2857,58.696
2858,59.151
2859,59.319
2860,59.054
2861,58.546
2862,57.587
2863,56.427
2864,55.448
2865,53.974
2866,52.405
2867,50.964
2868,49.768
2869,49.238
2870,48.746
2871,47.571
2872,46.214
2873,44.736
2874,44.026
2875,42.659
2876,41.635
2877,40.667
2878,39.411
2879,37.911
2880,36.478
2881,34.861
2882,33.873
2883,32.163
2884,30.593
2885,29.093
2886,27.871
2887,26.407
2888,24.962
2889,22.565
2890,20.847
2891,20.335
2892,20.869
2893,21.810
2894,22.698
2895,23.373
2896,24.087
2897,24.952
2898,25.792
2899,27.075
2900,28.637
2901,30.095
2902,31.407
2903,33.149
2904,35.216
2905,36.792
2906,38.530
2907,39.702
2908,41.056
2909,42.714
2910,44.341
2911,45.317
2912,46.012
2913,46.042
2914,46.165
2915,47.524
2916,49.546
2917,53.859
2918,57.329
2919,59.921
2920,61.000
2921,61.651
2922,62.016
2923,62.157
2924,62.595
2925,63.514
2926,64.617
2927,64.677
2928,64.353
2929,64.496
2930,65.196
2931,65.631
2932,66.357
2933,67.893
2934,69.089
2935,69.940
2936,70.542
2937,71.343
2938,72.032
2939,71.905
2940,71.435
2941,70.865
2942,70.204
2943,69.796
2944,70.143
2945,71.220
2946,72.984
2947,73.321
2948,72.879
2949,72.214
2950,71.365
2951,70.438
2952,70.099
2953,69.085
2954,68.645
2955,67.387
2956,66.121
2957,64.899
2958,64.036
2959,62.651
2960,61.442
2961,60.024
2962,59.194
2963,57.907
2964,56.399
2965,54.661
2966,53.115
2967,51.254
2968,49.752
2969,48.633
2970,47.395
2971,45.982
2972,44.702
2973,43.222
2974,42.008
2975,40.873
2976,40.379
2977,39.659
2978,39.329
2979,37.429
2980,34.831
2981,31.857
2982,28.802
2983,26.302
2984,25.153
2985,23.278
2986,22.012
2987,20.516
2988,19.565
2989,19.194
2990,19.145
2991,20.103
2992,21.647
2993,22.978
2994,24.198
2995,25.923
2996,27.960
2997,30.071
2998,31.423
2999,32.615
3000,33.442
3001,34.720
3002,36.470
3003,37.956
3004,39.641
3005,41.381
3006,43.105
3007,44.625
3008,45.867
3009,47.411
3010,48.899
3011,50.462
3012,52.181
3013,54.790
3014,57.534
3015,58.734
3016,58.534
3017,58.835
3018,59.313
3019,60.022
3020,61.040
3021,62.258
3022,63.347
3023,63.679
3024,63.687
3025,64.415
3026,65.657
3027,66.236
3028,66.706
3029,67.300
3030,67.857
3031,67.990
3032,67.821
3033,67.567
3034,67.456
3035,67.296
3036,67.490
3037,68.331
3038,69.260
3039,69.379
3040,69.010
3041,68.986
3042,69.546
3043,69.446
3044,69.171
3045,69.099
3046,68.899
3047,68.524
3048,68.540
3049,67.881
3050,67.677
3051,66.450
3052,64.802
3053,63.716
3054,63.276
3055,62.050
3056,60.663
3057,58.587
3058,56.752
3059,53.974
3060,50.986
3061,49.923
3062,49.925
3063,49.500
3064,49.226
3065,48.476
3066,47.817
3067,46.266
3068,44.728
3069,43.331
3070,41.587
3071,40.099
3072,39.036
3073,37.456
3074,35.970
3075,34.282
3076,32.464
3077,30.611
3078,28.812
3079,27.143
3080,25.954
3081,23.534
3082,20.954
3083,19.401
3084,18.565
3085,17.925
3086,17.494
3087,17.113
3088,17.123
3089,17.097
3090,17.571
3091,18.845
3092,20.298
3093,22.151
3094,23.595
3095,25.159
3096,26.685
3097,28.127
3098,29.750
3099,30.825
3100,32.073
3101,33.242
3102,34.450
3103,35.669
3104,37.044
3105,38.409
3106,39.677
3107,40.808
3108,41.748
3109,43.133
3110,44.698
3111,45.266
3112,45.222
3113,45.643
3114,46.750
3115,47.371
3116,48.018
3117,48.806
3118,49.665
3119,49.883
3120,49.631
3121,49.929
3122,50.758
3123,51.272
3124,51.810
3125,52.052
3126,52.244
3127,52.429
3128,52.415
3129,52.486
3130,52.827
3131,52.843
3132,52.722
3133,52.657
3134,52.629
3135,52.804
3136,53.567
3137,54.210
3138,55.006
3139,55.014
3140,54.393
3141,54.034
3142,53.264
3143,52.296
3144,51.367
3145,51.058
3146,51.246
3147,51.040
3148,50.373
3149,49.843
3150,49.425
3151,48.589
3152,47.718
3153,46.871
3154,46.385
3155,45.331
3156,44.016
3157,42.780
3158,41.774
3159,40.958
3160,40.567
3161,40.012
3162,39.758
3163,39.073
3164,37.929
3165,36.651
3166,35.242
3167,33.800
3168,32.829
3169,31.306
3170,30.014
3171,28.538
3172,27.627
3173,26.196
3174,24.800
3175,23.339
3176,22.290
3177,20.228
3178,18.427
3179,16.500
3180,15.198
3181,14.190
3182,13.556
3183,13.204
3184,13.498
3185,13.135
3186,13.188
3187,13.353
3188,13.621
3189,14.147
3190,14.413
3191,14.631
3192,15.087
3193,15.855
3194,17.063
3195,18.379
3196,19.446
3197,20.754
3198,21.601
3199,22.058
3200,22.306
3201,22.669
3202,23.536
3203,24.274
3204,25.369
3205,26.407
3206,26.738
3207,27.508
3208,28.153
3209,28.903
3210,29.810
3211,30.373
3212,30.925
3213,31.276
3214,31.621
3215,31.647
3216,31.569
3217,31.480
3218,31.917
3219,32.248
3220,32.708
3221,33.387
3222,34.167
3223,34.671
3224,35.141
3225,35.619
3226,36.341
3227,36.151
3228,35.466
3229,34.921
3230,34.510
3231,34.020
3232,33.774
3233,33.589
3234,33.437
3235,32.911
3236,32.520
3237,32.155
3238,31.609
3239,31.149
3240,30.677
3241,29.879
3242,29.379
3243,29.052
3244,28.831
3245,28.867
3246,29.240
3247,29.536
3248,30.002
3249,30.302
3250,30.821
3251,30.605
3252,29.675
3253,29.052
3254,28.516
3255,27.806
3256,27.292
3257,26.571
3258,26.171
3259,25.833
3260,25.377
3261,24.895
3262,24.413
3263,23.579
3264,22.992
3265,22.700
3266,22.538
3267,22.133
3268,21.472
3269,21.052
3270,20.514
3271,19.738
3272,19.038
3273,18.365
3274,18.091
3275,17.921
3276,17.704
3277,17.815
3278,17.903
3279,17.843
3280,17.790
3281,17.716
3282,17.950
3283,18.357
3284,19.083
3285,20.333
3286,21.450
3287,22.806
3288,24.510
3289,26.212
3290,28.490
3291,30.085
3292,31.387
3293,32.877
3294,34.254
3295,35.105
3296,36.204
3297,37.060
3298,38.536
3299,39.647
3300,40.603
3301,42.133
3302,43.889
3303,44.804
3304,45.573
3305,46.036
3306,46.956
3307,47.504
3308,48.087
3309,49.224
3310,50.615
3311,51.032
3312,51.062
3313,51.425
3314,52.411
3315,52.734
3316,53.085
3317,53.986
3318,54.861
3319,55.512
3320,56.337
3321,57.460
3322,58.883
3323,59.393
3324,59.304
3325,58.982
3326,58.286
3327,57.427
3328,56.685
3329,57.103
3330,58.383
3331,58.704
3332,58.764
3333,59.202
3334,59.093
3335,58.708
3336,58.242
3337,57.808
3338,58.198
3339,58.313
3340,58.347
3341,58.565
3342,58.788
3343,58.296
3344,57.585
3345,56.831
3346,56.167
3347,55.437
3348,54.732
3349,54.075
3350,53.302
3351,52.643
3352,51.536
3353,50.692
3354,50.446
3355,49.575
3356,48.625
3357,48.135
3358,47.579
3359,46.992
3360,46.325
3361,45.026
3362,43.643
3363,41.764
3364,39.986
3365,38.244
3366,37.063
3367,36.238
3368,35.935
3369,35.512
3370,36.028
3371,35.869
3372,35.770
3373,36.478
3374,37.944
3375,39.433
3376,41.367
3377,43.107
3378,44.917
3379,46.933
3380,49.143
3381,51.583
3382,53.278
3383,55.149
3384,56.788
3385,58.468
3386,59.933
3387,60.452
3388,60.359
3389,61.587
3390,63.544
3391,66.992
3392,70.415
3393,74.228
3394,77.804
3395,80.089
3396,81.188
3397,82.486
3398,83.611
3399,84.673
3400,85.464
3401,86.591
3402,88.171
3403,89.637
3404,91.232
3405,92.425
3406,93.085
3407,93.444
3408,93.175
3409,93.526
3410,94.395
3411,95.319
3412,96.329
3413,97.688
3414,98.579
3415,99.248
3416,99.546
3417,99.909
3418,100.405
3419,100.345
3420,100.165
3421,99.895
3422,99.615
3423,99.514
3424,99.571
3425,99.776
3426,100.321
3427,100.796
3428,101.056
3429,101.016
3430,100.871
3431,100.792
3432,101.159
3433,101.250
3434,101.452
3435,100.843
3436,99.498
3437,98.708
3438,98.591
3439,98.133
3440,98.292
3441,98.020
3442,97.514
3443,95.903
3444,93.494
3445,91.679
3446,91.069
3447,89.833
3448,88.883
3449,87.710
3450,87.012
3451,84.540
3452,81.651
3453,77.647
3454,73.663
3455,69.065
3456,65.002
3457,62.442
3458,62.502
3459,61.861
3460,61.127
3461,60.206
3462,58.538
3463,56.851
3464,56.032
3465,54.788
3466,54.063
3467,54.369
3468,56.069
3469,57.986
3470,60.312
3471,62.365
3472,63.968
3473,66.371
3474,68.534
3475,71.252
3476,73.766
3477,76.986
3478,79.978
3479,82.175
3480,83.075
3481,85.399
3482,88.425
3483,91.224
3484,93.196
3485,94.992
3486,95.706
3487,96.766
3488,97.466
3489,99.339
3490,102.405
3491,103.903
3492,104.058
3493,105.109
3494,106.437
3495,107.976
3496,109.433
3497,111.409
3498,113.228
3499,114.363
3500,114.978
3501,116.065
3502,116.885
3503,117.589
3504,117.845
3505,117.966
3506,118.411
3507,118.631
3508,118.405
3509,118.679
3510,119.312
3511,119.595
3512,119.591
3513,120.391
3514,121.714
3515,122.550
3516,123.290
3517,124.163
3518,124.889
3519,125.280
3520,125.562
3521,125.649
3522,125.792
3523,125.325
3524,124.873
3525,124.379
3526,124.254
3527,123.804
3528,123.325
3529,122.915
3530,122.815
3531,122.321
3532,122.157
3533,121.704
3534,121.623
3535,121.312
3536,121.363
3537,120.567
3538,120.224
3539,119.208
3540,118.700
3541,118.343
3542,118.063
3543,116.917
3544,114.942
3545,112.617
3546,111.010
3547,108.518
3548,106.375
3549,104.256
3550,102.365
3551,98.802
3552,94.724
3553,88.073
3554,79.921
3555,75.010
3556,75.113
3557,75.093
3558,75.913
3559,76.313
3560,76.387
3561,76.397
3562,77.264
3563,76.657
3564,75.980
3565,76.724
3566,78.433
3567,81.361
3568,84.030
3569,89.843
3570,97.012
3571,101.772
3572,103.929
3573,106.560
3574,108.669
3575,111.720
3576,113.988
3577,115.050
3578,116.323
3579,117.659
3580,118.974
3581,121.448
3582,124.002
3583,125.361
3584,125.546
3585,125.696
3586,125.639
3587,125.383
3588,125.296
3589,126.345
3590,128.093
3591,129.052
3592,129.903
3593,130.403
3594,131.153
3595,131.623
3596,132.087
3597,132.732
3598,133.228
3599,133.133
3600,132.913
3601,133.063
3602,133.841
3603,134.401
3604,134.841
3605,135.192
3606,135.151
3607,135.109
3608,134.867
3609,135.103
3610,135.794
3611,136.065
3612,136.306
3613,136.536
3614,136.752
3615,137.200
3616,137.502
3617,137.962
3618,138.522
3619,138.587
3620,138.468
3621,138.125
3622,137.633
3623,137.452
3624,137.601
3625,138.260
3626,139.688
3627,139.823
3628,139.518
3629,138.944
3630,138.252
3631,137.381
3632,137.024
3633,136.748
3634,137.256
3635,136.683
3636,135.605
3637,134.010
3638,132.063
3639,128.688
3640,124.357
3641,121.216
3642,120.331
3643,118.236
3644,116.052
3645,113.698
3646,111.567
3647,107.933
3648,103.667
3649,97.597
3650,92.127
3651,86.780
3652,84.369
3653,83.266
3654,83.619
3655,83.639
3656,83.770
3657,85.214
3658,87.627
3659,93.546
3660,100.629
3661,107.046
3662,111.190
3663,113.952
3664,115.490
3665,117.385
3666,119.425
3667,121.587
3668,123.704
3669,126.397
3670,128.631
3671,130.659
3672,132.208
3673,133.385
3674,134.407
3675,135.385
3676,136.236
3677,137.331
3678,138.667
3679,139.635
3680,140.063
3681,141.119
3682,142.183
3683,142.230
3684,141.716
3685,141.413
3686,141.339
3687,141.460
3688,141.869
3689,142.280
3690,142.790
3691,143.151
3692,143.200
3693,143.903
3694,144.853
3695,145.306
3696,145.363
3697,145.310
3698,145.687
3699,145.683
3700,145.956
3701,146.248
3702,146.583
3703,147.440
3704,148.397
3705,149.438
3706,150.593
3707,151.060
3708,151.327
3709,151.329
3710,151.101
3711,150.665
3712,150.296
3713,150.179
3714,150.306
3715,150.496
3716,150.673
3717,151.006
3718,151.161
3719,150.873
3720,150.272
3721,149.415
3722,149.440
3723,148.663
3724,147.657
3725,146.899
3726,146.123
3727,144.944
3728,143.819
3729,142.187
3730,141.153
3731,138.863
3732,135.891
3733,133.359
3734,130.851
3735,127.768
3736,125.063
3737,120.869
3738,116.897
3739,112.687
3740,109.982
3741,106.179
3742,101.903
3743,96.409
3744,91.601
3745,89.298
3746,89.994
3747,90.560
3748,91.093
3749,94.524
3750,98.833
3751,105.161
3752,111.952
3753,119.633
3754,125.468
3755,128.609
3756,129.996
3757,131.361
3758,132.129
3759,133.349
3760,134.738
3761,135.865
3762,137.109
3763,137.536
3764,137.427
3765,138.139
3766,139.302
3767,140.133
3768,141.129
3769,142.159
3770,143.577
3771,144.563
3772,145.056
3773,146.119
3774,147.312
3775,147.891
3776,148.111
3777,148.597
3778,149.315
3779,149.835
3780,150.145
3781,150.260
3782,149.996
3783,149.665
3784,149.621
3785,149.310
3786,149.556
3787,149.776
3788,150.141
3789,150.560
3790,150.825
3791,151.298
3792,152.171
3793,152.946
3794,153.784
3795,154.060
3796,154.268
3797,154.631
3798,155.077
3799,155.774
3800,156.470
3801,157.147
3802,157.929
3803,157.514
3804,156.560
3805,155.476
3806,154.849
3807,154.196
3808,153.946
3809,153.885
3810,154.460
3811,154.542
3812,154.056
3813,153.381
3814,152.988
3815,152.024
3816,150.986
3817,149.760
3818,149.165
3819,147.827
3820,146.155
3821,144.280
3822,142.565
3823,140.990
3824,140.464
3825,139.185
3826,138.083
3827,135.677
3828,132.952
3829,129.992
3830,127.415
3831,124.534
3832,121.855
3833,117.056
3834,111.345
3835,103.970
3836,98.242
3837,95.065
3838,95.369
3839,95.133
3840,94.500
3841,98.339
3842,104.744
3843,111.837
3844,116.240
3845,122.175
3846,127.625
3847,130.208
3848,131.442
3849,133.288
3850,135.542
3851,136.492
3852,136.558
3853,138.060
3854,140.204
3855,142.228
3856,144.361
3857,145.188
3858,145.187
3859,145.187
3860,145.623
3861,146.062
3862,146.373
3863,146.804
3864,147.331
3865,148.286
3866,149.746
3867,151.034
3868,152.083
3869,152.706
3870,153.258
3871,153.421
3872,153.734
3873,153.470
3874,153.615
3875,153.694
3876,154.052
3877,154.464
3878,154.708
3879,154.647
3880,154.397
3881,154.367
3882,154.617
3883,154.788
3884,155.067
3885,155.423
3886,155.903
3887,156.391
3888,157.030
3889,157.810
3890,158.869
3891,159.218
3892,159.077
3893,159.093
3894,159.280
3895,158.875
3896,158.435
3897,158.046
3898,158.183
3899,157.982
3900,157.567
3901,157.347
3902,157.363
3903,156.506
3904,155.091
3905,153.635
3906,152.698
3907,151.228
3908,149.877
3909,149.855
3910,150.813
3911,150.750
3912,150.155
3913,148.827
3914,147.663
3915,145.494
3916,143.073
3917,140.891
3918,138.853
3919,135.845
3920,132.790
3921,128.321
3922,124.310
3923,119.609
3924,116.026
3925,110.635
3926,104.744
3927,99.077
3928,97.155
3929,95.671
3930,95.387
3931,99.502
3932,106.306
3933,112.782
3934,116.865
3935,121.518
3936,125.673
3937,128.397
3938,130.413
3939,132.147
3940,133.385
3941,136.113
3942,139.974
3943,142.710
3944,143.720
3945,144.641
3946,145.603
3947,145.724
3948,145.516
3949,145.492
3950,145.861
3951,145.982
3952,146.365
3953,147.292
3954,148.889
3955,150.369
3956,151.607
3957,152.177
3958,152.290
3959,152.258
3960,152.121
3961,151.940
3962,152.040
3963,152.800
3964,153.794
3965,154.544
3966,155.288
3967,155.786
3968,156.054
3969,155.921
3970,155.837
3971,155.823
3972,156.312
3973,156.825
3974,157.228
3975,157.151
3976,157.000
3977,156.153
3978,155.643
3979,155.103
3980,154.813
3981,154.625
3982,154.196
3983,153.438
3984,152.940
3985,152.111
3986,151.617
3987,151.145
3988,151.020
3989,151.169
3990,151.214
3991,151.232
3992,151.004
3993,150.464
3994,150.321
3995,149.893
3996,149.389
3997,149.137
3998,149.044
3999,148.298
4000,146.909
4001,145.528
4002,144.313
4003,142.173
4004,139.542
4005,137.298
4006,136.081
4007,133.996
4008,131.742
4009,129.272
4010,128.399
4011,126.111
4012,123.748
4013,120.730
4014,117.855
4015,112.784
4016,107.397
4017,100.972
4018,96.238
4019,93.603
4020,93.881
4021,96.593
4022,100.960
4023,106.000
4024,110.585
4025,114.837
4026,118.256
4027,122.111
4028,125.345
4029,128.169
4030,130.240
4031,132.258
4032,133.958
4033,135.776
4034,137.845
4035,139.202
4036,139.692
4037,140.601
4038,141.056
4039,141.667
4040,142.347
4041,143.573
4042,145.794
4043,147.113
4044,147.919
4045,148.716
4046,148.736
4047,149.030
4048,149.248
4049,149.464
4050,150.036
4051,150.444
4052,150.861
4053,151.026
4054,151.125
4055,151.351
4056,151.905
4057,152.238
4058,152.966
4059,153.280
4060,153.278
4061,153.518
4062,153.780
4063,153.978
4064,154.185
4065,154.079
4066,154.099
4067,153.970
4068,153.575
4069,153.538
4070,153.599
4071,153.415
4072,153.343
4073,152.766
4074,152.808
4075,152.234
4076,151.794
4077,151.508
4078,151.490
4079,150.333
4080,148.935
4081,148.171
4082,148.435
4083,147.772
4084,146.875
4085,145.970
4086,145.306
4087,143.849
4088,141.855
4089,139.643
4090,138.524
4091,137.208
4092,136.579
4093,135.966
4094,135.579
4095,134.095
4096,131.315
4097,128.577
4098,126.214
4099,123.415
4100,120.288
4101,116.573
4102,112.050
4103,107.087
4104,104.228
4105,99.913
4106,96.264
4107,91.673
4108,87.869
4109,85.073
4110,84.629
4111,83.516
4112,82.635
4113,83.437
4114,86.595
4115,94.308
4116,103.024
4117,109.665
4118,113.272
4119,115.472
4120,115.998
4121,117.804
4122,120.867
4123,124.129
4124,126.825
4125,129.087
4126,130.857
4127,132.016
4128,132.329
4129,132.571
4130,132.813
4131,132.919
4132,133.202
4133,134.831
4134,137.097
4135,139.163
4136,140.853
4137,142.107
4138,143.121
4139,143.448
4140,143.480
4141,143.571
4142,143.823
4143,144.002
4144,143.750
4145,143.958
4146,144.565
4147,144.764
4148,144.383
4149,144.421
4150,144.575
4151,144.365
4152,144.544
4153,144.427
4154,145.095
4155,145.583
4156,145.907
4157,146.254
4158,146.373
4159,145.903
4160,145.175
4161,144.405
4162,144.119
4163,143.123
4164,141.907
4165,141.290
4166,141.153
4167,140.671
4168,140.415
4169,139.994
4170,140.010
4171,139.282
4172,137.970
4173,136.548
4174,135.510
4175,134.460
4176,133.442
4177,132.401
4178,131.603
4179,130.536
4180,129.802
4181,128.887
4182,128.192
4183,126.226
4184,122.857
4185,119.887
4186,117.962
4187,114.756
4188,110.397
4189,106.206
4190,103.571
4191,100.179
4192,97.579
4193,91.990
4194,85.107
4195,78.869
4196,75.919
4197,74.190
4198,74.353
4199,74.063
4200,73.530
4201,72.185
4202,70.579
4203,70.161
4204,71.121
4205,73.772
4206,77.042
4207,81.280
4208,84.427
4209,88.327
4210,92.125
4211,96.024
4212,98.450
4213,102.192
4214,105.944
4215,108.056
4216,108.970
4217,110.365
4218,112.671
4219,114.155
4220,115.107
4221,115.629
4222,115.508
4223,115.492
4224,115.562
4225,116.228
4226,117.323
4227,118.387
4228,119.256
4229,121.054
4230,123.139
4231,124.687
4232,125.794
4233,126.567
4234,127.611
4235,128.093
4236,128.468
4237,128.679
4238,128.452
4239,128.585
4240,128.417
4241,128.429
4242,128.853
4243,128.962
4244,129.097
4245,129.498
4246,130.044
4247,130.276
4248,130.347
4249,129.994
4250,129.625
4251,128.970
4252,128.353
4253,127.177
4254,125.940
4255,124.246
4256,122.931
4257,122.000
4258,121.837
4259,121.022
4260,119.766
4261,118.637
4262,117.700
4263,116.621
4264,116.163
4265,115.117
4266,114.746
4267,113.010
4268,110.647
4269,108.554
4270,106.994
4271,104.587
4272,101.518
4273,98.806
4274,97.522
4275,95.498
4276,93.347
4277,90.165
4278,86.708
4279,81.923
4280,76.724
4281,70.917
4282,67.373
4283,63.970
4284,61.748
4285,59.242
4286,57.438
4287,56.060
4288,55.339
4289,55.048
4290,55.708
4291,56.187
4292,57.165
4293,58.280
4294,59.284
4295,59.873
4296,60.321
4297,60.169
4298,60.034
4299,61.554
4300,64.611
4301,69.921
4302,75.625
4303,79.861
4304,81.873
4305,84.575
4306,86.986
4307,89.639
4308,91.423
4309,94.038
4310,96.744
4311,99.597
4312,101.857
4313,103.359
4314,104.526
4315,105.175
4316,105.742
4317,106.262
4318,106.573
4319,106.873
4320,106.558
4321,107.006
4322,108.371
4323,108.879
4324,108.587
4325,108.431
4326,108.621
4327,108.601
4328,108.671
4329,108.627
4330,108.762
4331,108.548
4332,108.161
4333,107.946
4334,108.032
4335,107.698
4336,107.760
4337,107.349
4338,106.968
4339,106.083
4340,104.548
4341,103.155
4342,102.079
4343,100.903
4344,100.331
4345,99.194
4346,99.194
4347,98.300
4348,97.192
4349,96.274
4350,95.052
4351,93.933
4352,93.081
4353,91.131
4354,89.560
4355,86.621
4356,83.716
4357,81.224
4358,79.784
4359,77.645
4360,76.016
4361,73.312
4362,71.032
4363,67.018
4364,62.131
4365,58.137
4366,55.675
4367,53.562
4368,51.972
4369,50.583
4370,49.669
4371,48.095
4372,45.758
4373,43.413
4374,41.845
4375,40.177
4376,39.079
4377,37.601
4378,36.821
4379,36.306
4380,36.798
4381,37.329
4382,38.018
4383,38.847
4384,39.629
4385,40.286
4386,41.313
4387,42.581
4388,44.633
4389,46.899
4390,49.087
4391,50.938
4392,52.018
4393,53.385
4394,54.885
4395,56.218
4396,57.810
4397,59.016
4398,60.119
4399,60.567
4400,60.266
4401,60.877
4402,62.339
4403,62.972
4404,62.984
4405,63.119
4406,63.585
4407,64.115
4408,64.474
4409,64.869
4410,65.794
4411,65.948
4412,65.750
4413,65.770
4414,66.183
4415,66.413
4416,66.998
4417,67.407
4418,68.474
4419,68.472
4420,67.256
4421,66.060
4422,65.379
4423,64.415
4424,63.980
4425,63.500
4426,63.563
4427,63.502
4428,63.256
4429,62.766
4430,62.224
4431,61.645
4432,61.232
4433,60.968
4434,61.185
4435,60.254
4436,58.202
4437,56.337
4438,54.833
4439,53.313
4440,52.077
4441,50.675
4442,49.619
4443,48.444
4444,47.623
4445,46.889
4446,45.863
4447,44.845
4448,44.018
4449,42.502
4450,41.050
4451,39.542
4452,37.712
4453,36.181
4454,34.861
4455,33.337
4456,32.478
4457,30.927
4458,29.768
4459,28.145
4460,26.865
4461,25.321
4462,23.972
4463,22.726
4464,21.855
4465,20.484
4466,19.583
4467,19.169
4468,19.081
4469,19.327
4470,19.476
4471,19.405
4472,19.020
4473,18.869
4474,19.014
4475,19.395
4476,20.083
4477,21.175
4478,22.103
4479,23.125
4480,24.246
4481,25.597
4482,27.135
4483,28.647
4484,30.250
4485,31.708
4486,32.605
4487,33.071
4488,33.194
4489,33.470
4490,34.266
4491,34.875
4492,35.329
4493,35.671
4494,35.800
4495,35.817
4496,35.986
4497,36.419
4498,37.073
4499,37.649
4500,38.159
4501,38.371
4502,38.812
4503,38.899
4504,38.625
4505,38.724
4506,39.546
4507,39.938
4508,40.458
4509,40.843
4510,41.387
4511,41.990
4512,42.004
4513,42.276
4514,42.762
4515,42.774
4516,42.611
4517,42.337
4518,42.198
4519,41.982
4520,41.546
4521,41.026
4522,40.944
4523,40.563
4524,40.210
4525,40.248
4526,40.317
4527,40.256
4528,40.113
4529,39.456
4530,39.329
4531,38.815
4532,37.558
4533,36.585
4534,36.125
4535,35.133
4536,34.470
4537,33.516
4538,32.962
4539,32.022
4540,30.877
4541,29.931
4542,29.129
4543,27.952
4544,27.004
4545,25.593
4546,24.494
4547,23.216
4548,21.839
4549,20.534
4550,19.552
4551,18.970
4552,19.185
4553,18.869
4554,19.050
4555,19.091
4556,19.319
4557,19.788
4558,20.466
4559,20.956
4560,21.216
4561,21.496
4562,22.000
4563,22.980
4564,24.224
4565,25.599
4566,26.776
4567,28.052
4568,29.236
4569,30.399
4570,31.649
4571,33.056
4572,34.560
4573,36.286
4574,37.774
4575,39.262
4576,40.359
4577,41.583
4578,42.950
4579,43.786
4580,44.302
4581,45.111
4582,46.347
4583,47.440
4584,48.313
4585,48.956
4586,49.885
4587,50.452
4588,50.687
4589,51.208
4590,51.681
4591,51.919
4592,52.147
4593,52.560
4594,53.381
4595,53.998
4596,54.103
4597,54.361
4598,55.038
4599,55.341
4600,55.181
4601,54.774
4602,54.625
4603,54.415
4604,53.940
4605,54.524
4606,55.962
4607,57.250
4608,58.444
4609,59.452
4610,60.264
4611,60.296
4612,59.780
4613,59.401
4614,59.351
4615,58.500
4616,57.177
4617,55.663
4618,55.103
4619,53.992
4620,53.250
4621,52.460
4622,51.752
4623,51.272
4624,50.730
4625,50.030
4626,50.129
4627,49.556
4628,48.123
4629,47.256
4630,46.740
4631,45.839
4632,44.694
4633,43.425
4634,42.472
4635,40.984
4636,39.286
4637,37.649
4638,35.980
4639,34.431
4640,33.706
4641,32.282
4642,30.694
4643,28.877
4644,27.419
4645,26.333
4646,25.895
4647,26.145
4648,27.456
4649,29.038
4650,30.643
4651,31.972
4652,32.994
4653,34.224
4654,35.347
4655,36.581
4656,37.488
4657,38.940
4658,40.788
4659,42.385
4660,43.498
4661,44.810
4662,46.000
4663,47.286
4664,48.431
4665,49.655
4666,50.734
4667,51.345
4668,51.990
4669,52.690
4670,53.609
4671,54.942
4672,56.593
4673,58.264
4674,60.040
4675,61.423
4676,61.956
4677,63.133
4678,64.657
4679,65.585
4680,65.798
4681,66.454
4682,67.923
4683,68.911
4684,69.155
4685,69.450
4686,70.083
4687,70.266
4688,70.532
4689,70.488
4690,70.484
4691,70.127
4692,69.845
4693,69.683
4694,69.361
4695,68.946
4696,68.202
4697,67.724
4698,67.653
4699,67.214
4700,66.849
4701,66.238
4702,65.599
4703,65.056
4704,64.230
4705,63.379
4706,63.571
4707,62.780
4708,61.677
4709,60.442
4710,59.310
4711,57.913
4712,56.748
4713,55.308
4714,54.218
4715,53.006
4716,52.135
4717,51.375
4718,50.933
4719,50.218
4720,49.266
4721,48.206
4722,47.627
4723,46.847
4724,45.694
4725,44.786
4726,43.851
4727,42.595
4728,40.942
4729,38.478
4730,37.147
4731,35.159
4732,34.079
4733,32.946
4734,31.601
4735,31.002
4736,31.131
4737,30.661
4738,30.756
4739,30.976
4740,32.020
4741,33.498
4742,34.726
4743,36.129
4744,37.627
4745,38.637
4746,39.710
4747,41.077
4748,43.012
4749,45.331
4750,47.942
4751,49.544
4752,49.958
4753,50.391
4754,51.498
4755,52.687
4756,53.942
4757,55.998
4758,58.343
4759,60.446
4760,61.917
4761,63.262
4762,64.903
4763,65.659
4764,65.113
4765,65.242
4766,65.804
4767,66.280
4768,66.546
4769,67.002
4770,67.962
4771,69.327
4772,70.490
4773,72.258
4774,74.103
4775,75.532
4776,76.518
4777,77.179
4778,77.810
4779,77.938
4780,77.720
4781,77.452
4782,77.308
4783,77.024
4784,76.437
4785,75.792
4786,75.639
4787,74.784
4788,73.722
4789,72.790
4790,71.786
4791,71.040
4792,70.819
4793,70.214
4794,70.329
4795,70.117
4796,69.905
4797,69.234
4798,68.357
4799,66.631
4800,64.976
4801,62.300
4802,59.893
4803,57.085
4804,54.508
4805,53.149
4806,52.829
4807,52.212
4808,51.054
4809,50.143
4810,49.792
4811,48.937
4812,47.536
4813,45.706
4814,43.302
4815,41.286
4816,40.454
4817,38.873
4818,37.375
4819,36.145
4820,35.280
4821,34.204
4822,33.079
4823,32.151
4824,31.808
4825,31.109
4826,30.798
4827,30.470
4828,30.506
4829,31.105
4830,32.022
4831,33.194
4832,34.496
4833,35.885
4834,37.262
4835,38.694
4836,40.187
4837,41.407
4838,42.359
4839,43.421
4840,44.601
4841,46.028
4842,47.466
4843,48.833
4844,49.790
4845,50.609
4846,51.425
4847,52.000
4848,52.058
4849,52.244
4850,53.131
4851,53.911
4852,54.813
4853,56.127
4854,57.647
4855,58.887
4856,59.798
4857,60.127
4858,61.147
4859,61.950
4860,62.655
4861,63.179
4862,63.310
4863,63.175
4864,63.361
4865,63.202
4866,63.026
4867,62.954
4868,63.105
4869,63.333
4870,63.389
4871,63.258
4872,62.891
4873,62.121
4874,61.585
4875,60.804
4876,60.700
4877,60.510
4878,60.512
4879,59.956
4880,59.214
4881,57.724
4882,56.403
4883,54.827
4884,54.010
4885,53.361
4886,52.996
4887,52.252
4888,51.548
4889,50.587
4890,50.119
4891,49.383
4892,48.194
4893,46.788
4894,45.401
4895,44.395
4896,43.385
4897,42.210
4898,41.010
4899,39.946
4900,38.948
4901,37.442
4902,35.560
4903,34.016
4904,33.510
4905,32.367
4906,31.242
4907,29.772
4908,28.244
4909,26.514
4910,24.891
4911,23.996
4912,24.028
4913,24.024
4914,24.276
4915,24.413
4916,24.645
4917,25.214
4918,26.143
4919,26.764
4920,27.421
4921,27.696
4922,28.470
4923,29.115
4924,30.052
4925,31.063
4926,32.252
4927,33.331
4928,34.240
4929,34.952
4930,35.615
4931,36.169
4932,36.645
4933,37.395
4934,38.548
4935,39.478
4936,39.911
4937,40.460
4938,41.687
4939,42.304
4940,42.546
4941,43.282
4942,44.220
4943,44.861
4944,45.204
4945,45.496
4946,45.855
4947,45.754
4948,45.645
4949,45.558
4950,45.589
4951,45.704
4952,45.347
4953,45.054
4954,45.085
4955,45.185
4956,45.399
4957,45.714
4958,46.222
4959,46.381
4960,45.946
4961,45.518
4962,45.292
4963,44.677
4964,43.976
4965,43.502
4966,42.782
4967,42.244
4968,41.528
4969,40.802
4970,40.321
4971,39.778
4972,39.363
4973,38.871
4974,38.177
4975,37.395
4976,36.970
4977,36.079
4978,35.597
4979,34.571
4980,33.304
4981,31.784
4982,30.149
4983,28.395
4984,27.530
4985,26.224
4986,25.413
4987,24.238
4988,22.738
4989,21.413
4990,20.181
4991,19.147
4992,18.518
4993,17.639
4994,16.788
4995,15.946
4996,15.476
4997,15.147
4998,15.079
4999,15.032
5000,14.694
5001,14.665
5002,14.875
5003,14.929
5004,15.046
5005,15.591
5006,15.994
5007,16.442
5008,16.641
5009,16.663
5010,17.232
5011,17.621
5012,18.187
5013,19.093
5014,19.772
5015,20.248
5016,20.907
5017,21.716
5018,22.720
5019,23.448
5020,24.040
5021,24.627
5022,25.325
5023,25.639
5024,25.704
5025,25.544
5026,25.794
5027,25.994
5028,26.165
5029,26.034
5030,25.881
5031,26.254
5032,26.032
5033,25.873
5034,25.718
5035,25.409
5036,24.974
5037,24.845
5038,25.000
5039,24.988
5040,24.813
5041,24.367
5042,24.268
5043,24.034
5044,23.613
5045,23.498
5046,23.500
5047,23.232
5048,22.843
5049,21.827
5050,21.093
5051,19.962
5052,18.532
5053,17.486
5054,16.776
5055,16.008
5056,15.329
5057,14.377
5058,13.923
5059,13.369
5060,13.089
5061,13.058
5062,12.980
5063,12.879
5064,12.480
5065,12.183
5066,12.171
5067,11.972
5068,11.637
5069,11.141
5070,10.869
5071,10.528
5072,10.776
5073,10.657
5074,10.784
5075,10.716
5076,10.437
5077,10.252
5078,9.974
5079,9.577
5080,9.726
5081,9.593
5082,9.948
5083,10.012
5084,10.036
5085,9.944
5086,9.683
5087,9.724
5088,9.242
5089,9.119
5090,9.266
5091,9.425
5092,9.312
5093,9.484
5094,9.681
5095,9.639
5096,9.758
5097,9.643
5098,9.694
5099,9.599
5100,9.492
5101,9.532
5102,9.621
5103,9.694
5104,9.591
5105,9.437
5106,9.486
5107,9.450
5108,9.222
5109,9.306
5110,9.599
5111,9.593
5112,9.659
5113,9.558
5114,9.708
5115,9.726
5116,9.621
5117,9.752
5118,9.810
5119,9.863
5120,9.627
5121,9.679
5122,9.788
5123,9.776
5124,9.875
5125,10.167
5126,10.502
5127,10.710
5128,10.730
5129,10.593
5130,10.893
5131,10.968
5132,10.925
5133,11.089
5134,11.250
5135,11.262
5136,11.284
5137,11.329
5138,11.706
5139,11.782
5140,11.812
5141,12.002
5142,12.145
5143,12.171
5144,12.145
5145,12.260
5146,12.817
5147,12.891
5148,12.450
5149,12.391
5150,12.413
5151,12.194
5152,12.014
5153,11.819
5154,12.024
5155,11.933
5156,11.933
5157,11.990
5158,11.774
5159,11.683
5160,11.647
5161,11.569
5162,11.873
5163,11.954
5164,11.659
5165,11.625
5166,11.524
5167,11.288
5168,11.460
5169,11.272
5170,11.351
5171,11.298
5172,11.313
5173,11.458
5174,11.415
5175,11.470
5176,11.700
5177,11.712
5178,12.038
5179,12.385
5180,12.679
5181,13.224
5182,13.655
5183,14.008
5184,14.313
5185,14.893
5186,15.847
5187,16.687
5188,17.308
5189,17.937
5190,18.389
5191,19.050
5192,19.849
5193,20.565
5194,21.879
5195,23.032
5196,24.071
5197,25.522
5198,26.881
5199,27.534
5200,27.530
5201,27.597
5202,28.333
5203,28.734
5204,28.994
5205,29.492
5206,30.167
5207,30.673
5208,30.625
5209,30.734
5210,31.093
5211,31.427
5212,32.151
5213,32.883
5214,33.468
5215,34.095
5216,34.081
5217,33.837
5218,34.107
5219,33.871
5220,33.183
5221,32.740
5222,32.653
5223,32.500
5224,32.375
5225,32.302
5226,32.347
5227,32.228
5228,31.907
5229,31.433
5230,31.145
5231,30.677
5232,30.111
5233,29.175
5234,28.607
5235,27.730
5236,26.800
5237,25.859
5238,25.028
5239,24.089
5240,23.615
5241,22.621
5242,22.087
5243,21.244
5244,20.587
5245,19.903
5246,18.966
5247,18.169
5248,17.863
5249,17.157
5250,16.704
5251,16.294
5252,16.018
5253,15.837
5254,15.577
5255,15.345
5256,15.371
5257,15.129
5258,15.282
5259,15.595
5260,16.329
5261,17.111
5262,18.067
5263,19.052
5264,20.845
5265,22.115
5266,23.700
5267,25.008
5268,26.099
5269,27.046
5270,28.063
5271,29.020
5272,29.526
5273,29.907
5274,30.752
5275,31.446
5276,32.381
5277,33.276
5278,34.228
5279,35.127
5280,35.718
5281,36.161
5282,37.194
5283,38.127
5284,39.129
5285,40.056
5286,41.107
5287,41.685
5288,41.819
5289,41.730
5290,42.075
5291,42.101
5292,41.827
5293,41.954
5294,42.157
5295,42.091
5296,41.613
5297,41.238
5298,41.103
5299,40.933
5300,41.040
5301,41.020
5302,40.972
5303,40.861
5304,40.482
5305,40.425
5306,40.589
5307,40.397
5308,40.169
5309,39.885
5310,39.800
5311,39.462
5312,39.198
5313,38.659
5314,38.302
5315,37.536
5316,36.573
5317,35.381
5318,34.508
5319,33.304
5320,32.276
5321,30.867
5322,30.004
5323,29.032
5324,28.062
5325,27.335
5326,26.343
5327,25.389
5328,24.280
5329,22.821
5330,21.591
5331,20.462
5332,19.520
5333,18.972
5334,18.440
5335,17.970
5336,17.919
5337,18.008
5338,18.296
5339,18.548
5340,19.157
5341,19.891
5342,20.716
5343,21.389
5344,21.923
5345,22.681
5346,23.847
5347,24.990
5348,25.929
5349,27.042
5350,27.962
5351,29.073
5352,29.982
5353,31.220
5354,32.865
5355,34.357
5356,35.776
5357,37.296
5358,38.690
5359,39.532
5360,39.847
5361,40.294
5362,41.113
5363,41.621
5364,41.859
5365,42.040
5366,42.500
5367,42.694
5368,43.030
5369,43.288
5370,43.645
5371,43.784
5372,43.720
5373,43.435
5374,43.504
5375,43.552
5376,43.649
5377,43.552
5378,43.925
5379,44.030
5380,43.877
5381,43.544
5382,43.440
5383,43.085
5384,43.401
5385,43.018
5386,43.016
5387,42.732
5388,42.331
5389,42.103
5390,41.958
5391,41.538
5392,41.248
5393,40.288
5394,39.609
5395,38.893
5396,38.058
5397,37.272
5398,36.690
5399,36.179
5400,35.474
5401,34.583
5402,33.915
5403,32.891
5404,31.637
5405,30.663
5406,29.853
5407,28.736
5408,28.151
5409,27.181
5410,26.278
5411,25.048
5412,23.992
5413,22.776
5414,21.437
5415,20.567
5416,20.135
5417,19.704
5418,19.321
5419,18.972
5420,18.619
5421,18.456
5422,18.567
5423,18.893
5424,19.873
5425,20.675
5426,21.480
5427,22.280
5428,22.907
5429,23.931
5430,25.266
5431,26.222
5432,26.915
5433,27.665
5434,29.103
5435,30.173
5436,30.988
5437,31.855
5438,32.875
5439,33.357
5440,33.167
5441,33.089
5442,33.635
5443,34.131
5444,35.052
5445,36.056
5446,36.913
5447,37.714
5448,38.135
5449,38.667
5450,39.567
5451,40.067
5452,40.486
5453,40.756
5454,41.196
5455,41.389
5456,41.385
5457,41.619
5458,41.994
5459,42.262
5460,42.367
5461,42.234
5462,42.409
5463,42.240
5464,41.944
5465,41.361
5466,40.831
5467,40.204
5468,40.065
5469,39.764
5470,39.558
5471,39.175
5472,38.161
5473,37.302
5474,37.115
5475,36.647
5476,35.681
5477,35.131
5478,34.581
5479,34.030
5480,33.617
5481,32.901
5482,32.171
5483,31.123
5484,29.675
5485,28.288
5486,27.077
5487,25.712
5488,24.613
5489,23.185
5490,22.256
5491,21.270
5492,20.688
5493,20.163
5494,19.276
5495,18.244
5496,17.635
5497,16.526
5498,15.770
5499,15.238
5500,15.270
5501,15.371
5502,15.319
5503,15.383
5504,15.746
5505,15.663
5506,15.952
5507,16.308
5508,16.972
5509,18.119
5510,19.391
5511,20.587
5512,21.538
5513,22.327
5514,23.101
5515,23.706
5516,24.395
5517,25.071
5518,25.704
5519,26.244
5520,26.643
5521,27.175
5522,28.315
5523,29.048
5524,29.609
5525,29.893
5526,30.321
5527,30.558
5528,30.357
5529,30.071
5530,30.542
5531,30.472
5532,30.169
5533,29.974
5534,30.006
5535,30.038
5536,30.272
5537,30.228
5538,30.488
5539,30.690
5540,30.843
5541,30.873
5542,30.905
5543,30.815
5544,30.694
5545,30.772
5546,31.401
5547,31.573
5548,31.419
5549,31.321
5550,31.284
5551,31.042
5552,30.675
5553,30.256
5554,30.079
5555,29.585
5556,28.776
5557,28.062
5558,27.381
5559,26.704
5560,26.474
5561,25.631
5562,24.976
5563,24.052
5564,22.740
5565,21.347
5566,19.857
5567,18.490
5568,17.817
5569,16.780
5570,15.980
5571,15.129
5572,14.435
5573,13.788
5574,13.125
5575,12.504
5576,12.230
5577,12.034
5578,12.048
5579,12.044
5580,11.851
5581,11.468
5582,11.292
5583,11.089
5584,10.825
5585,10.817
5586,10.937
5587,10.891
5588,10.879
5589,11.062
5590,11.240
5591,11.339
5592,11.504
5593,11.391
5594,11.385
5595,11.440
5596,11.492
5597,11.734
5598,11.948
5599,12.196
5600,12.256
5601,12.329
5602,12.730
5603,12.901
5604,13.087
5605,13.238
5606,13.329
5607,13.482
5608,13.677
5609,13.883
5610,14.502
5611,14.873
5612,14.675
5613,14.685
5614,14.974
5615,15.050
5616,15.002
5617,15.046
5618,15.377
5619,15.490
5620,15.329
5621,15.433
5622,15.448
5623,15.214
5624,14.839
5625,14.562
5626,14.492
5627,14.333
5628,14.073
5629,13.571
5630,13.319
5631,13.240
5632,13.050
5633,12.581
5634,12.407
5635,12.214
5636,11.978
5637,11.802
5638,11.750
5639,11.250
5640,10.879
5641,10.466
5642,10.556
5643,10.488
5644,10.048
5645,9.839
5646,9.857
5647,9.635
5648,9.508
5649,9.159
5650,9.052
5651,8.974
5652,8.978
5653,8.964
5654,8.857
5655,8.718
5656,8.726
5657,8.669
5658,8.506
5659,8.343
5660,8.319
5661,8.415
5662,8.437
5663,8.462
5664,8.181
5665,8.159
5666,8.169
5667,8.264
5668,8.125
5669,8.018
5670,8.079
5671,8.163
5672,8.196
5673,8.095
5674,8.294
5675,8.347
5676,8.310
5677,8.476
5678,8.657
5679,8.817
5680,8.444
5681,8.425
5682,8.488
5683,8.524
5684,8.625
5685,8.649
5686,8.605
5687,8.581
5688,8.496
5689,8.496
5690,8.647
5691,8.766
5692,8.758
5693,8.782
5694,8.724
5695,8.653
5696,8.387
5697,8.262
5698,8.484
5699,8.569
5700,8.762
5701,9.000
5702,8.927
5703,9.022
5704,8.917
5705,8.851
5706,8.899
5707,8.804
5708,8.667
5709,8.696
5710,8.827
5711,8.885
5712,8.647
5713,8.571
5714,8.573
5715,8.643
5716,8.671
5717,8.685
5718,8.752
5719,8.877
5720,8.597
5721,8.446
5722,8.514
5723,8.474
5724,8.395
5725,8.373
5726,8.319
5727,8.288
5728,8.071
5729,8.139
5730,8.425
5731,8.526
5732,8.633
5733,8.591
5734,8.252
5735,8.169
5736,8.179
5737,7.887
5738,8.236
5739,8.427
5740,8.490
5741,8.573
5742,8.510
5743,8.365
5744,8.224
5745,8.306
5746,8.540
5747,8.641
5748,8.756
5749,8.923
5750,8.978
5751,8.974
5752,9.002
5753,9.044
5754,9.252
5755,9.498
5756,9.573
5757,9.851
5758,10.190
5759,10.387
5760,10.732
5761,10.744
5762,11.413
5763,11.815
5764,11.889
5765,12.093
5766,12.173
5767,12.438
5768,12.496
5769,12.756
5770,13.216
5771,13.710
5772,14.290
5773,14.605
5774,14.931
5775,15.161
5776,15.200
5777,15.099
5778,15.419
5779,15.486
5780,15.270
5781,15.349
5782,15.613
5783,15.508
5784,15.645
5785,15.498
5786,15.901
5787,16.010
5788,15.681
5789,15.433
5790,15.468
5791,15.393
5792,14.812
5793,14.409
5794,14.409
5795,14.397
5796,14.091
5797,13.669
5798,13.431
5799,13.129
5800,13.010
5801,12.635
5802,12.563
5803,12.341
5804,12.052
5805,11.891
5806,11.843
5807,11.657
5808,11.377
5809,10.861
5810,10.720
5811,10.466
5812,10.423
5813,10.423
5814,10.264
5815,10.248
5816,10.274
5817,10.298
5818,10.260
5819,10.377
5820,10.427
5821,10.444
5822,10.367
5823,10.288
5824,9.792
5825,9.556
5826,9.823
5827,10.008
5828,10.448
5829,10.879
5830,11.101
5831,11.526
5832,12.187
5833,13.135
5834,14.407
5835,15.510
5836,16.510
5837,17.474
5838,18.571
5839,19.427
5840,19.633
5841,20.105
5842,20.804
5843,21.325
5844,21.849
5845,22.028
5846,22.212
5847,22.508
5848,23.163
5849,23.349
5850,23.921
5851,24.292
5852,24.312
5853,24.504
5854,24.871
5855,25.153
5856,24.954
5857,24.790
5858,25.101
5859,25.230
5860,25.460
5861,25.587
5862,25.718
5863,25.923
5864,26.407
5865,26.794
5866,27.692
5867,27.956
5868,27.734
5869,27.548
5870,27.276
5871,26.948
5872,26.589
5873,26.101
5874,25.952
5875,25.258
5876,24.409
5877,23.730
5878,22.994
5879,22.405
5880,21.978
5881,20.891
5882,20.512
5883,19.641
5884,18.329
5885,17.196
5886,16.240
5887,15.359
5888,14.881
5889,14.188
5890,14.014
5891,13.615
5892,13.333
5893,13.139
5894,13.024
5895,12.839
5896,12.837
5897,12.712
5898,12.669
5899,12.587
5900,12.544
5901,12.635
5902,12.853
5903,12.839
5904,12.895
5905,12.706
5906,12.845
5907,12.976
5908,12.813
5909,13.048
5910,13.661
5911,14.085
5912,14.415
5913,14.665
5914,15.204
5915,16.058
5916,17.435
5917,18.806
5918,20.109
5919,20.986
5920,21.722
5921,22.081
5922,22.988
5923,23.877
5924,24.383
5925,24.800
5926,25.234
5927,25.669
5928,26.069
5929,26.238
5930,26.869
5931,27.381
5932,27.681
5933,27.903
5934,28.607
5935,29.028
5936,28.776
5937,28.419
5938,28.373
5939,28.194
5940,27.764
5941,27.520
5942,27.510
5943,27.591
5944,27.627
5945,27.770
5946,28.155
5947,28.044
5948,27.593
5949,27.206
5950,27.244
5951,26.744
5952,26.067
5953,25.202
5954,24.641
5955,24.008
5956,22.964
5957,21.619
5958,20.147
5959,18.788
5960,18.375
5961,17.792
5962,17.256
5963,16.607
5964,15.782
5965,14.986
5966,14.121
5967,13.512
5968,13.157
5969,12.683
5970,12.242
5971,11.950
5972,11.774
5973,11.821
5974,11.911
5975,11.946
5976,11.746
5977,11.411
5978,11.524
5979,11.645
5980,11.746
5981,12.192
5982,12.395
5983,12.633
5984,12.625
5985,12.621
5986,12.738
5987,12.909
5988,13.159
5989,13.405
5990,13.980
5991,14.552
5992,15.349
5993,16.107
5994,17.008
5995,17.901
5996,18.740
5997,19.468
5998,20.395
5999,21.290
6000,21.893
6001,22.206
6002,23.359
6003,23.881
6004,23.514
6005,23.290
6006,23.341
6007,23.276
6008,23.196
6009,22.859
6010,22.839
6011,22.958
6012,23.151
6013,23.573
6014,24.268
6015,24.651
6016,24.577
6017,24.165
6018,24.478
6019,24.550
6020,23.960
6021,23.532
6022,23.637
6023,23.518
6024,23.575
6025,23.260
6026,22.982
6027,22.206
6028,21.286
6029,20.510
6030,19.998
6031,19.524
6032,19.111
6033,18.609
6034,18.167
6035,17.704
6036,17.290
6037,16.980
6038,16.720
6039,16.708
6040,16.228
6041,15.399
6042,14.968
6043,14.157
6044,13.601
6045,12.867
6046,12.224
6047,12.048
6048,11.585
6049,11.349
6050,11.044
6051,10.718
6052,10.756
6053,10.825
6054,10.986
6055,11.083
6056,10.883
6057,10.853
6058,10.655
6059,10.548
6060,10.611
6061,10.677
6062,10.843
6063,11.085
6064,10.913
6065,10.724
6066,11.016
6067,11.234
6068,11.312
6069,11.558
6070,11.847
6071,12.248
6072,12.744
6073,13.185
6074,13.770
6075,14.175
6076,14.788
6077,15.321
6078,15.873
6079,16.393
6080,16.478
6081,16.643
6082,17.272
6083,17.677
6084,17.671
6085,17.829
6086,18.347
6087,18.490
6088,18.315
6089,18.040
6090,17.950
6091,17.933
6092,18.083
6093,18.147
6094,18.476
6095,18.774
6096,18.423
6097,18.113
6098,17.798
6099,17.659
6100,17.766
6101,17.948
6102,18.266
6103,18.192
6104,17.948
6105,17.093
6106,16.843
6107,16.750
6108,16.264
6109,15.694
6110,15.470
6111,15.093
6112,14.827
6113,14.135
6114,13.972
6115,13.536
6116,12.970
6117,12.315
6118,11.768
6119,11.474
6120,11.087
6121,10.575
6122,10.383
6123,10.028
6124,9.954
6125,9.605
6126,9.444
6127,9.238
6128,9.294
6129,9.107
6130,8.937
6131,8.710
6132,8.605
6133,8.534
6134,8.514
6135,8.444
6136,8.712
6137,8.510
6138,8.490
6139,8.306
6140,8.290
6141,8.498
6142,8.653
6143,8.734
6144,8.788
6145,8.683
6146,8.744
6147,9.129
6148,9.431
6149,9.484
6150,9.321
6151,9.188
6152,9.103
6153,9.151
6154,9.431
6155,9.649
6156,9.770
6157,9.827
6158,9.952
6159,9.851
6160,9.877
6161,9.770
6162,9.794
6163,9.899
6164,10.206
6165,10.381
6166,10.347
6167,10.306
6168,10.264
6169,10.216
6170,10.317
6171,10.181
6172,10.163
6173,10.315
6174,10.520
6175,10.667
6176,10.605
6177,10.435
6178,10.603
6179,10.673
6180,10.411
6181,10.232
6182,10.294
6183,10.300
6184,10.002
6185,9.714
6186,9.613
6187,9.645
6188,9.500
6189,9.155
6190,8.944
6191,8.837
6192,8.734
6193,8.593
6194,8.581
6195,8.649
6196,8.558
6197,8.385
6198,8.359
6199,8.429
6200,8.294
6201,8.105
6202,8.258
6203,8.216
6204,8.107
6205,7.881
6206,7.800
6207,7.907
6208,7.712
6209,7.667
6210,7.702
6211,7.750
6212,7.655
6213,7.641
6214,7.593
6215,7.671
6216,7.558
6217,7.450
6218,7.526
6219,7.621
6220,7.696
6221,7.815
6222,7.810
6223,7.665
6224,7.597
6225,7.355
6226,7.280
6227,7.244
6228,7.163
6229,7.198
6230,7.397
6231,7.528
6232,7.252
6233,7.169
6234,7.188
6235,7.183
6236,7.206
6237,7.224
6238,7.403
6239,7.470
6240,7.407
6241,7.214
6242,7.187
6243,7.190
6244,7.317
6245,7.240
6246,7.028
6247,6.948
6248,7.034
6249,7.014
6250,7.351
6251,7.575
6252,7.514
6253,7.502
6254,7.470
6255,7.315
6256,7.230
6257,7.236
6258,7.202
6259,7.173
6260,7.107
6261,7.071
6262,6.942
6263,6.869
6264,6.599
6265,6.438
6266,6.597
6267,6.732
6268,6.720
6269,6.800
6270,7.024
6271,7.048
6272,6.685
6273,6.460
6274,6.647
6275,6.825
6276,6.821
6277,6.839
6278,6.748
6279,6.683
6280,6.810
6281,6.637
6282,6.710
6283,6.788
6284,6.746
6285,6.800
6286,6.929
6287,7.014
6288,6.859
6289,6.714
6290,6.677
6291,6.623
6292,6.655
6293,6.833
6294,6.756
6295,6.845
6296,7.093
6297,6.992
6298,7.093
6299,7.034
6300,7.026
6301,7.109
6302,7.230
6303,7.256
6304,7.133
6305,7.046
6306,7.210
6307,7.335
6308,7.260
6309,7.319
6310,7.583
6311,7.669
6312,7.903
6313,7.891
6314,8.069
6315,8.230
6316,8.276
6317,8.347
6318,8.627
6319,8.768
6320,8.685
6321,8.645
6322,8.651
6323,8.563
6324,8.319
6325,8.399
6326,8.720
6327,8.869
6328,9.002
6329,8.905
6330,9.083
6331,9.111
6332,9.123
6333,9.266
6334,9.419
6335,9.405
6336,9.123
6337,8.948
6338,8.716
6339,8.591
6340,8.538
6341,8.627
6342,8.623
6343,8.563
6344,8.274
6345,8.077
6346,7.861
6347,7.706
6348,7.615
6349,7.526
6350,7.524
6351,7.688
6352,7.667
6353,7.575
6354,7.627
6355,7.621
6356,7.335
6357,7.230
6358,7.244
6359,7.411
6360,7.520
6361,7.508
6362,7.506
6363,7.506
6364,7.232
6365,6.988
6366,6.974
6367,6.897
6368,6.972
6369,7.236
6370,7.413
6371,7.627
6372,7.905
6373,8.085
6374,8.206
6375,8.327
6376,8.327
6377,8.401
6378,8.605
6379,8.909
6380,9.266
6381,9.532
6382,9.829
6383,10.060
6384,10.262
6385,10.581
6386,10.802
6387,11.014
6388,11.194
6389,11.460
6390,11.827
6391,12.208
6392,12.657
6393,12.839
6394,13.268
6395,13.438
6396,13.270
6397,12.913
6398,12.940
6399,12.962
6400,12.704
6401,12.399
6402,12.302
6403,12.282
6404,12.125
6405,11.911
6406,11.823
6407,11.669
6408,11.377
6409,11.048
6410,11.302
6411,11.254
6412,10.938
6413,10.716
6414,10.506
6415,10.040
6416,9.835
6417,9.417
6418,9.296
6419,9.010
6420,8.861
6421,8.605
6422,8.347
6423,8.131
6424,8.026
6425,7.837
6426,7.998
6427,8.065
6428,8.103
6429,8.306
6430,8.425
6431,8.524
6432,8.123
6433,7.885
6434,7.736
6435,7.792
6436,7.835
6437,7.885
6438,8.062
6439,8.153
6440,8.147
6441,8.119
6442,8.129
6443,8.157
6444,8.272
6445,8.510
6446,8.760
6447,8.980
6448,9.046
6449,9.167
6450,9.657
6451,10.042
6452,10.262
6453,10.345
6454,10.437
6455,10.841
6456,11.401
6457,11.718
6458,12.528
6459,13.214
6460,13.534
6461,13.766
6462,13.982
6463,14.133
6464,14.167
6465,13.899
6466,14.119
6467,14.359
6468,14.234
6469,14.228
6470,14.476
6471,14.550
6472,14.506
6473,14.417
6474,14.619
6475,14.593
6476,14.270
6477,13.938
6478,13.748
6479,13.778
6480,13.520
6481,13.113
6482,12.937
6483,12.734
6484,12.540
6485,12.282
6486,12.030
6487,11.760
6488,11.651
6489,11.367
6490,11.270
6491,11.095
6492,10.859
6493,10.423
6494,10.187
6495,9.871
6496,9.649
6497,9.308
6498,9.266
6499,8.984
6500,8.742
6501,8.520
6502,8.516
6503,8.492
6504,8.379
6505,8.319
6506,8.573
6507,8.774
6508,8.665
6509,8.643
6510,8.569
6511,8.246
6512,8.343
6513,8.181
6514,8.131
6515,8.153
6516,8.177
6517,8.135
6518,8.288
6519,8.575
6520,8.409
6521,8.288
6522,8.321
6523,8.506
6524,8.815
6525,9.177
6526,9.565
6527,9.839
6528,10.365
6529,10.556
6530,10.778
6531,11.123
6532,11.405
6533,11.784
6534,12.308
6535,12.762
6536,12.530
6537,12.222
6538,12.069
6539,11.970
6540,12.036
6541,12.008
6542,11.794
6543,11.603
6544,11.591
6545,11.371
6546,11.401
6547,11.391
6548,11.216
6549,10.833
6550,10.724
6551,10.415
6552,10.450
6553,10.238
6554,10.125
6555,9.952
6556,9.873
6557,9.748
6558,9.627
6559,9.508
6560,9.349
6561,9.008
6562,8.944
6563,8.712
6564,8.308
6565,7.966
6566,7.978
6567,8.000
6568,7.911
6569,7.746
6570,7.649
6571,7.536
6572,7.323
6573,7.254
6574,7.161
6575,7.014
6576,7.222
6577,7.024
6578,7.187
6579,7.349
6580,7.169
6581,7.165
6582,7.046
6583,7.058
6584,7.206
6585,7.093
6586,7.173
6587,7.331
6588,7.399
6589,7.609
6590,7.847
6591,7.798
6592,7.712
6593,7.631
6594,7.772
6595,8.006
6596,8.196
6597,8.185
6598,8.200
6599,8.321
6600,8.264
6601,8.107
6602,8.204
6603,8.407
6604,8.363
6605,8.429
6606,8.669
6607,8.806
6608,8.601
6609,8.456
6610,8.427
6611,8.448
6612,8.516
6613,8.649
6614,8.732
6615,8.722
6616,8.532
6617,8.315
6618,8.282
6619,8.405
6620,8.242
6621,7.938
6622,7.867
6623,7.849
6624,7.790
6625,7.468
6626,7.573
6627,7.597
6628,7.280
6629,7.056
6630,6.935
6631,6.974
6632,6.958
6633,6.845
6634,6.810
6635,6.752
6636,6.782
6637,6.794
6638,6.728
6639,6.524
6640,6.361
6641,6.159
6642,6.282
6643,6.341
6644,6.190
6645,6.200
6646,6.187
6647,6.181
6648,6.187
6649,6.192
6650,6.343
6651,6.286
6652,6.216
6653,6.067
6654,6.042
6655,6.060
6656,6.139
6657,6.242
6658,6.337
6659,6.363
6660,6.304
6661,6.327
6662,6.369
6663,6.548
6664,6.585
6665,6.415
6666,6.534
6667,6.712
6668,6.813
6669,6.754
6670,6.702
6671,6.677
6672,6.687
6673,6.571
6674,6.720
6675,6.798
6676,6.528
6677,6.409
6678,6.516
6679,6.700
6680,6.571
6681,6.554
6682,6.653
6683,6.637
6684,6.637
6685,6.516
6686,6.496
6687,6.512
6688,6.135
6689,5.982
6690,6.151
6691,6.323
6692,6.276
6693,6.216
6694,6.216
6695,6.234
6696,6.123
6697,6.052
6698,6.089
6699,6.190
6700,6.030
6701,6.022
6702,5.937
6703,5.966
6704,5.827
6705,5.546
6706,5.643
6707,5.885
6708,5.982
6709,5.857
6710,5.819
6711,6.022
6712,6.113
6713,5.851
6714,5.839
6715,5.875
6716,5.829
6717,5.817
6718,5.794
6719,5.792
6720,5.748
6721,5.732
6722,5.802
6723,5.899
6724,5.802
6725,5.665
6726,5.591
6727,5.558
6728,5.526
6729,5.609
6730,5.696
6731,5.780
6732,5.782
6733,5.889
6734,5.847
6735,5.847
6736,5.698
6737,5.385
6738,5.470
6739,5.786
6740,5.837
6741,5.825
6742,5.893
6743,6.018
6744,6.020
6745,6.115
6746,6.145
6747,6.139
6748,6.075
6749,6.075
6750,6.103
6751,6.014
6752,6.020
6753,5.762
6754,5.738
6755,5.732
6756,5.641
6757,5.498
6758,5.597
6759,5.659
6760,5.653
6761,5.641
6762,5.762
6763,5.891
6764,5.813
6765,5.726
6766,5.710
6767,5.875
6768,5.758
6769,5.750
6770,5.968
6771,6.016
6772,5.784
6773,5.629
6774,5.383
6775,5.302
6776,5.544
6777,5.546
6778,5.730
6779,5.609
6780,5.526
6781,5.502
6782,5.540
6783,5.694
6784,5.655
6785,5.534
6786,5.605
6787,5.758
6788,5.704
6789,5.577
6790,5.452
6791,5.593
6792,5.560
6793,5.405
6794,5.438
6795,5.433
6796,5.399
6797,5.460
6798,5.528
6799,5.577
6800,5.552
6801,5.405
6802,5.440
6803,5.375
6804,5.361
6805,5.367
6806,5.177
6807,5.135
6808,5.244
6809,5.435
6810,5.589
6811,5.571
6812,5.504
6813,5.353
6814,5.192
6815,5.131
6816,5.282
6817,5.109
6818,5.228
6819,5.448
6820,5.427
6821,5.192
6822,5.060
6823,5.071
6824,5.093
6825,5.111
6826,5.413
6827,5.565
6828,5.560
6829,5.546
6830,5.573
6831,5.804
6832,5.623
6833,5.313
6834,5.423
6835,5.470
6836,5.694
6837,5.736
6838,5.556
6839,5.625
6840,5.403
6841,5.381
6842,5.552
6843,5.516
6844,5.405
6845,5.357
6846,5.450
6847,5.452
6848,5.530
6849,5.282
6850,5.192
6851,5.240
6852,5.355
6853,5.290
6854,5.159
6855,5.157
6856,4.998
6857,5.004
6858,5.238
6859,5.381
6860,5.317
6861,5.240
6862,5.190
6863,5.167
6864,4.960
6865,4.839
6866,5.187
6867,5.075
6868,5.050
6869,5.230
6870,5.032
6871,5.139
6872,5.188
6873,5.099
6874,5.343
6875,5.593
6876,5.544
6877,5.446
6878,5.442
6879,5.389
6880,5.202
6881,5.006
6882,5.024
6883,5.159
6884,5.248
6885,5.427
6886,5.562
6887,5.435
6888,5.264
6889,5.194
6890,5.256
6891,5.377
6892,5.476
6893,5.458
6894,5.276
6895,5.373
6896,5.306
6897,5.458
6898,5.415
6899,5.425
6900,5.228
6901,5.111
6902,4.972
6903,5.034
6904,4.927
6905,4.863
6906,4.976
6907,5.141
6908,5.218
6909,5.264
6910,5.313
6911,5.409
6912,5.294
6913,5.079
6914,5.028
6915,4.986
6916,4.907
6917,4.954
6918,5.171
6919,5.131
6920,5.155
6921,5.060
6922,5.042
6923,5.048
6924,5.062
6925,5.050
6926,4.875
6927,4.839
6928,4.806
6929,4.871
6930,4.935
6931,5.018
6932,4.788
6933,4.690
6934,4.607
6935,4.677
6936,4.538
6937,4.623
6938,4.935
6939,5.095
6940,5.073
6941,5.010
6942,5.036
6943,5.030
6944,4.804
6945,4.643
6946,4.738
6947,4.931
6948,4.923
6949,4.770
6950,4.665
6951,4.772
6952,4.593
6953,4.433
6954,4.623
6955,4.877
6956,4.821
6957,4.696
6958,4.901
6959,5.169
6960,4.905
6961,4.625
6962,4.562
6963,4.700
6964,4.835
6965,4.853
6966,4.808
6967,4.736
6968,4.744
6969,4.637
6970,4.544
6971,4.313
6972,4.143
6973,4.177
6974,4.300
6975,4.323
6976,4.429
6977,4.393
6978,4.522
6979,4.530
6980,4.427
6981,4.415
6982,4.411
6983,4.373
6984,4.355
6985,4.181
6986,4.357
6987,4.560
6988,4.556
6989,4.302
6990,3.978
6991,3.911
6992,3.665
6993,3.681
6994,3.837
6995,4.079
6996,4.302
6997,4.381
6998,4.268
6999,4.165
7000,4.022
7001,3.835
7002,3.960
7003,4.264
7004,4.444
7005,4.450
7006,4.373
7007,4.187
7008,3.929
7009,3.766
7010,3.812
7011,3.966
7012,4.075
7013,4.071
7014,3.968
7015,3.923
7016,3.675
7017,3.599
7018,3.581
7019,3.736
7020,3.784
7021,3.722
7022,3.637
7023,3.621
7024,3.500
7025,3.510
7026,3.611
7027,3.637
7028,3.452
7029,3.347
7030,3.419
7031,3.530
7032,3.391
7033,3.250
7034,3.236
7035,3.270
7036,3.151
7037,3.060
7038,3.117
7039,3.218
7040,3.286
7041,3.196
7042,3.038
7043,3.056
7044,3.079
7045,3.093
7046,3.093
7047,3.121
7048,2.950
7049,3.063
7050,3.161
7051,3.290
7052,3.220
7053,3.153
7054,3.260
7055,3.355
7056,3.048
7057,2.921
7058,2.883
7059,2.933
7060,2.893
7061,2.879
7062,3.016
7063,2.929
7064,2.974
7065,2.794
7066,2.778
7067,2.905
7068,2.913
7069,2.921
7070,2.974
7071,2.883
7072,2.972
7073,2.714
7074,2.851
7075,2.974
7076,2.732
7077,2.613
7078,2.720
7079,2.851
7080,2.712
7081,2.478
7082,2.550
7083,2.724
7084,2.687
7085,2.704
7086,2.925
7087,2.972
7088,2.974
7089,2.599
7090,2.472
7091,2.631
7092,2.706
7093,2.726
7094,2.821
7095,3.002
7096,2.913
7097,2.754
7098,2.696
7099,2.768
7100,2.802
7101,2.802
7102,2.851
7103,2.998
7104,2.915
7105,2.712
7106,2.645
7107,2.776
7108,2.831
7109,2.802
7110,2.738
7111,2.688
7112,2.837
7113,2.688
7114,2.716
7115,2.857
7116,2.665
7117,2.659
7118,2.784
7119,2.794
7120,2.750
7121,2.284
7122,2.361
7123,2.617
7124,2.706
7125,2.748
7126,2.748
7127,2.933
7128,2.780
7129,2.621
7130,2.609
7131,2.704
7132,2.756
7133,2.798
7134,2.653
7135,2.635
7136,2.617
7137,2.486
7138,2.530
7139,2.657
7140,2.718
7141,2.617
7142,2.671
7143,2.704
7144,2.655
7145,2.482
7146,2.482
7147,2.720
7148,2.875
7149,2.812
7150,2.708
7151,2.746
7152,2.560
7153,2.421
7154,2.450
7155,2.643
7156,2.591
7157,2.665
7158,2.758
7159,2.726
7160,2.685
7161,2.466
7162,2.484
7163,2.454
7164,2.454
7165,2.675
7166,2.877
7167,2.940
7168,2.685
7169,2.629
7170,2.611
7171,2.726
7172,2.748
7173,2.637
7174,2.532
7175,2.488
7176,2.536
7177,2.413
7178,2.563
7179,2.655
7180,2.740
7181,2.651
7182,2.524
7183,2.464
7184,2.323
7185,2.288
7186,2.403
7187,2.530
7188,2.583
7189,2.621
7190,2.512
7191,2.661
7192,2.631
7193,2.520
7194,2.546
7195,2.617
7196,2.663
7197,2.645
7198,2.633
7199,2.694
7200,2.629
7201,2.639
7202,2.583
7203,2.562
7204,2.536
7205,2.389
7206,2.460
7207,2.522
7208,2.794
7209,2.780
7210,2.768
7211,2.756
7212,2.687
7213,2.728
7214,2.815
7215,2.931
7216,2.786
7217,2.571
7218,2.645
7219,2.837
7220,2.790
7221,2.528
7222,2.490
7223,2.583
7224,2.728
7225,2.518
7226,2.504
7227,2.532
7228,2.548
7229,2.496
7230,2.613
7231,2.742
7232,2.812
7233,2.692
7234,2.651
7235,2.615
7236,2.560
7237,2.653
7238,2.792
7239,2.897
7240,2.790
7241,2.627
7242,2.613
7243,2.675
7244,2.714
7245,2.685
7246,2.728
7247,2.732
7248,2.573
7249,2.567
7250,2.599
7251,2.720
7252,2.786
7253,2.796
7254,2.841
7255,2.798
7256,2.716
7257,2.589
7258,2.550
7259,2.560
7260,2.613
7261,2.700
7262,2.722
7263,2.770
7264,2.800
7265,2.754
7266,2.720
7267,2.661
7268,2.567
7269,2.520
7270,2.528
7271,2.534
7272,2.673
7273,2.706
7274,2.790
7275,2.895
7276,2.742
7277,2.585
7278,2.585
7279,2.558
7280,2.605
7281,2.417
7282,2.460
7283,2.496
7284,2.444
7285,2.365
7286,2.409
7287,2.446
7288,2.605
7289,2.575
7290,2.621
7291,2.752
7292,2.810
7293,2.802
7294,2.847
7295,2.901
