Distance_(pixels),Gray_Value
0,0.538
1,0.641
2,0.795
3,0.692
4,0.615
5,0.538
6,0.590
7,0.692
8,0.538
9,0.692
10,0.821
11,0.692
12,0.564
13,0.718
14,0.795
15,0.795
16,0.744
17,0.615
18,0.538
19,0.564
20,0.641
21,0.795
22,0.692
23,0.692
24,0.564
25,0.641
26,0.872
27,0.821
28,0.795
29,0.667
30,0.615
31,0.692
32,0.718
33,0.692
34,0.897
35,0.821
36,0.667
37,0.359
38,0.410
39,0.538
40,0.564
41,0.590
42,0.590
43,0.462
44,0.308
45,0.410
46,0.538
47,0.692
48,0.667
49,0.615
50,0.667
51,0.692
52,0.692
53,0.692
54,0.692
55,0.769
56,0.385
57,0.615
58,0.897
59,0.821
60,0.769
61,0.795
62,0.769
63,0.744
64,0.538
65,0.513
66,0.564
67,0.667
68,0.744
69,0.641
70,0.590
71,0.744
72,0.564
73,0.487
74,0.487
75,0.590
76,0.564
77,0.436
78,0.359
79,0.462
80,0.410
81,0.538
82,0.692
83,0.795
84,0.821
85,0.769
86,0.872
87,0.846
88,0.795
89,0.692
90,0.590
91,0.667
92,0.821
93,0.846
94,0.641
95,0.410
96,0.385
97,0.564
98,0.769
99,0.744
100,0.641
101,0.667
102,0.564
103,0.590
104,0.487
105,0.462
106,0.513
107,0.487
108,0.641
109,0.564
110,0.513
111,0.513
112,0.641
113,0.538
114,0.538
115,0.615
116,0.513
117,0.487
118,0.615
119,0.821
120,0.538
121,0.615
122,0.692
123,0.462
124,0.385
125,0.769
126,0.821
127,0.821
128,0.410
129,0.538
130,0.615
131,0.769
132,0.846
133,0.769
134,0.667
135,0.590
136,0.564
137,0.718
138,0.846
139,0.974
140,0.923
141,0.795
142,0.923
143,1.026
144,0.803
145,1.103
146,1.333
147,1.470
148,1.462
149,1.402
150,1.556
151,1.735
152,2.034
153,2.983
154,3.769
155,3.709
156,3.615
157,3.949
158,4.026
159,3.470
160,2.162
161,1.709
162,1.231
163,1.162
164,1.256
165,0.735
166,0.675
167,0.974
168,0.581
169,0.641
170,0.538
171,0.462
172,0.282
173,0.393
174,0.598
175,0.684
176,0.615
177,0.615
178,0.564
179,0.462
180,0.282
181,0.333
182,0.487
183,0.744
184,0.487
185,0.615
186,0.744
187,0.744
188,0.590
189,0.410
190,0.410
191,0.667
192,0.513
193,0.462
194,0.564
195,0.590
196,0.564
197,0.333
198,0.410
199,0.487
200,0.385
201,0.436
202,0.538
203,0.667
204,0.667
205,0.564
206,0.538
207,0.615
208,0.590
209,0.513
210,0.641
211,0.744
212,0.744
213,0.385
214,0.385
215,0.641
216,0.615
217,0.538
218,0.470
219,0.573
220,0.581
221,0.598
222,0.547
223,0.496
224,0.513
225,0.641
226,0.598
227,0.410
228,0.402
229,0.470
230,0.453
231,0.581
232,0.410
233,0.590
234,0.590
235,0.718
236,0.624
237,0.598
238,0.726
239,0.906
240,0.658
241,0.624
242,0.615
243,0.838
244,1.000
245,1.111
246,1.239
247,1.658
248,1.846
249,2.573
250,3.521
251,4.085
252,4.615
253,5.162
254,5.282
255,5.128
256,4.026
257,2.769
258,2.162
259,1.991
260,1.769
261,1.470
262,1.632
263,1.556
264,1.521
265,1.274
266,1.111
267,0.957
268,0.718
269,0.564
270,0.496
271,0.444
272,0.590
273,0.385
274,0.256
275,0.282
276,0.308
277,0.513
278,0.538
279,0.487
280,0.385
281,0.436
282,0.632
283,0.735
284,0.726
285,0.675
286,0.624
287,0.684
288,0.615
289,0.684
290,0.735
291,0.675
292,0.376
293,0.316
294,0.496
295,0.675
296,0.564
297,0.709
298,0.692
299,0.675
300,0.615
301,0.385
302,0.436
303,0.462
304,0.256
305,0.462
306,0.564
307,0.513
308,0.496
309,0.556
310,0.692
311,0.658
312,0.419
313,0.598
314,0.650
315,0.487
316,0.239
317,0.265
318,0.376
319,0.632
320,0.410
321,0.436
322,0.598
323,0.598
324,0.462
325,0.385
326,0.154
327,0.231
328,0.299
329,0.410
330,0.564
331,0.769
332,0.795
333,0.564
334,0.581
335,0.726
336,0.761
337,0.803
338,1.128
339,1.376
340,1.376
341,1.222
342,1.248
343,1.538
344,1.513
345,1.752
346,2.111
347,2.641
348,3.479
349,4.368
350,4.615
351,4.120
352,3.632
353,3.359
354,3.197
355,2.829
356,2.581
357,2.393
358,2.308
359,2.291
360,1.940
361,1.957
362,1.795
363,1.350
364,1.051
365,0.880
366,0.795
367,0.581
368,0.487
369,0.615
370,0.667
371,0.675
372,0.667
373,0.675
374,0.718
375,0.795
376,0.658
377,0.667
378,0.752
379,0.821
380,0.897
381,0.821
382,0.778
383,0.744
384,0.641
385,0.684
386,0.530
387,0.479
388,0.513
389,0.239
390,0.462
391,0.889
392,0.410
393,0.368
394,0.427
395,0.402
396,0.419
397,0.333
398,0.462
399,0.564
400,0.393
401,0.496
402,0.513
403,0.462
404,0.308
405,0.205
406,0.231
407,0.385
408,0.205
409,0.462
410,0.795
411,0.709
412,0.581
413,0.470
414,0.444
415,0.564
416,0.402
417,0.607
418,0.641
419,0.726
420,0.641
421,0.556
422,0.402
423,0.393
424,0.504
425,0.778
426,1.000
427,1.103
428,1.051
429,0.974
430,1.051
431,1.085
432,0.838
433,1.000
434,1.085
435,1.051
436,1.120
437,1.265
438,1.598
439,1.957
440,1.752
441,1.786
442,2.419
443,2.761
444,3.761
445,5.179
446,6.658
447,7.299
448,7.231
449,9.624
450,12.556
451,11.248
452,8.128
453,6.821
454,6.308
455,5.615
456,4.667
457,3.966
458,3.316
459,2.718
460,2.462
461,2.205
462,1.821
463,1.427
464,1.239
465,0.940
466,0.761
467,0.915
468,1.171
469,1.154
470,1.043
471,1.085
472,0.812
473,0.726
474,0.607
475,0.675
476,0.573
477,0.504
478,0.521
479,0.581
480,0.795
481,0.838
482,0.923
483,0.821
484,0.880
485,0.812
486,0.718
487,0.632
488,0.718
489,0.940
490,0.974
491,0.957
492,0.974
493,0.872
494,0.872
495,1.103
496,0.966
497,0.821
498,0.675
499,0.684
500,0.590
501,0.402
502,0.624
503,0.991
504,0.906
505,0.761
506,0.650
507,0.607
508,0.598
509,0.692
510,0.752
511,0.752
512,0.419
513,0.564
514,0.470
515,0.462
516,0.684
517,0.803
518,0.829
519,0.718
520,0.641
521,0.863
522,1.103
523,1.034
524,0.795
525,0.838
526,0.940
527,1.214
528,0.915
529,0.949
530,1.197
531,1.419
532,1.521
533,1.624
534,1.829
535,2.256
536,2.470
537,2.214
538,2.581
539,2.675
540,3.051
541,4.000
542,5.239
543,7.077
544,9.162
545,11.214
546,13.017
547,13.282
548,12.462
549,11.829
550,11.231
551,9.521
552,6.855
553,5.188
554,3.991
555,3.256
556,2.786
557,2.197
558,1.872
559,1.821
560,1.906
561,1.581
562,1.299
563,1.282
564,1.128
565,1.043
566,0.932
567,1.017
568,1.094
569,0.744
570,0.684
571,0.838
572,0.786
573,0.624
574,0.709
575,0.821
576,1.111
577,1.274
578,1.325
579,1.256
580,0.829
581,0.778
582,0.829
583,1.026
584,0.846
585,1.103
586,1.342
587,1.427
588,1.299
589,1.120
590,1.205
591,1.402
592,1.103
593,1.282
594,1.291
595,1.248
596,0.983
597,0.897
598,1.000
599,1.214
600,1.120
601,1.103
602,1.017
603,1.094
604,1.197
605,1.077
606,1.120
607,1.179
608,0.863
609,0.880
610,0.795
611,0.829
612,0.821
613,0.932
614,1.291
615,1.590
616,1.658
617,1.735
618,1.684
619,1.581
620,1.590
621,1.530
622,1.692
623,1.769
624,1.564
625,1.778
626,1.658
627,1.709
628,1.829
629,2.137
630,2.111
631,2.256
632,2.786
633,3.504
634,4.137
635,4.761
636,5.402
637,5.675
638,6.316
639,7.932
640,10.709
641,14.043
642,18.239
643,22.231
644,24.915
645,24.376
646,22.521
647,21.504
648,19.214
649,14.966
650,10.667
651,8.162
652,6.915
653,5.778
654,5.145
655,4.821
656,4.094
657,3.521
658,3.043
659,2.410
660,1.821
661,1.590
662,1.325
663,1.436
664,1.291
665,1.231
666,1.385
667,1.427
668,1.333
669,1.530
670,1.573
671,1.556
672,1.359
673,1.521
674,1.641
675,1.675
676,1.265
677,0.974
678,0.966
679,1.128
680,0.829
681,0.863
682,0.923
683,0.803
684,0.718
685,0.846
686,1.068
687,1.231
688,0.752
689,0.838
690,1.000
691,1.248
692,1.427
693,1.393
694,1.547
695,1.521
696,1.402
697,1.479
698,1.479
699,1.368
700,1.239
701,1.368
702,1.470
703,1.521
704,1.385
705,1.342
706,1.239
707,1.145
708,1.145
709,1.111
710,1.009
711,0.906
712,0.880
713,0.940
714,1.094
715,1.111
716,1.026
717,0.923
718,1.145
719,1.154
720,1.068
721,1.162
722,1.145
723,1.402
724,1.735
725,1.803
726,2.154
727,2.718
728,3.128
729,3.915
730,4.735
731,5.094
732,5.615
733,6.000
734,6.726
735,7.513
736,9.043
737,11.530
738,15.350
739,19.239
740,22.675
741,25.812
742,28.436
743,29.342
744,28.812
745,28.162
746,26.564
747,21.521
748,15.051
749,10.325
750,7.145
751,5.051
752,4.094
753,3.598
754,3.470
755,3.419
756,3.350
757,2.761
758,2.068
759,1.769
760,1.744
761,1.966
762,1.821
763,1.761
764,1.872
765,1.803
766,1.752
767,1.590
768,1.325
769,1.462
770,1.590
771,1.581
772,1.402
773,1.325
774,1.385
775,1.496
776,1.530
777,1.496
778,1.615
779,1.650
780,1.538
781,1.444
782,1.581
783,1.692
784,1.470
785,1.547
786,1.607
787,1.726
788,1.838
789,1.880
790,1.983
791,2.000
792,1.684
793,1.641
794,1.530
795,1.521
796,1.547
797,1.513
798,1.556
799,1.462
800,1.410
801,1.496
802,1.675
803,1.692
804,1.726
805,1.786
806,1.667
807,1.590
808,1.470
809,1.487
810,1.675
811,1.624
812,1.556
813,1.462
814,1.325
815,1.333
816,1.265
817,1.282
818,1.359
819,1.282
820,1.470
821,1.607
822,1.675
823,1.598
824,1.752
825,2.222
826,2.393
827,2.863
828,3.701
829,4.103
830,4.855
831,6.274
832,7.880
833,9.726
834,12.128
835,14.957
836,18.385
837,20.299
838,21.795
839,24.068
840,25.496
841,23.752
842,20.487
843,15.718
844,11.462
845,9.368
846,8.274
847,6.547
848,5.111
849,4.556
850,4.171
851,3.496
852,2.906
853,2.436
854,2.051
855,1.803
856,1.590
857,1.419
858,1.368
859,1.504
860,1.641
861,1.607
862,1.641
863,1.752
864,1.974
865,2.282
866,2.564
867,2.598
868,2.419
869,2.009
870,1.624
871,1.641
872,1.684
873,1.547
874,1.761
875,1.846
876,2.000
877,2.308
878,2.368
879,2.077
880,1.838
881,1.923
882,1.769
883,1.692
884,1.752
885,1.701
886,1.650
887,1.658
888,1.444
889,1.650
890,2.009
891,1.949
892,1.863
893,1.915
894,2.239
895,2.453
896,2.513
897,2.427
898,2.444
899,2.444
900,2.333
901,2.085
902,2.154
903,2.368
904,2.333
905,2.419
906,2.752
907,3.026
908,3.299
909,3.256
910,3.145
911,2.949
912,2.863
913,2.880
914,3.077
915,3.504
916,3.838
917,4.137
918,4.060
919,4.009
920,4.171
921,4.291
922,5.162
923,6.308
924,7.402
925,8.487
926,9.581
927,10.769
928,12.564
929,14.974
930,19.103
931,22.573
932,24.974
933,26.821
934,28.205
935,28.863
936,27.205
937,24.376
938,20.821
939,17.513
940,14.564
941,11.932
942,9.256
943,7.538
944,6.427
945,5.880
946,5.316
947,4.393
948,3.547
949,2.991
950,2.778
951,2.726
952,3.026
953,3.137
954,3.316
955,3.179
956,3.137
957,3.120
958,3.017
959,2.974
960,2.786
961,2.991
962,3.137
963,3.274
964,3.590
965,3.667
966,3.504
967,3.504
968,3.564
969,3.376
970,3.068
971,2.872
972,2.863
973,2.872
974,2.855
975,2.829
976,3.197
977,3.436
978,3.846
979,4.462
980,4.513
981,4.632
982,4.256
983,4.239
984,3.880
985,3.829
986,3.769
987,3.504
988,3.291
989,2.966
990,2.650
991,2.684
992,2.419
993,2.368
994,2.359
995,2.479
996,2.530
997,2.453
998,2.333
999,2.282
1000,2.248
1001,2.521
1002,3.111
1003,3.496
1004,3.795
1005,3.872
1006,4.043
1007,4.214
1008,3.897
1009,3.949
1010,3.564
1011,3.376
1012,3.632
1013,3.684
1014,4.000
1015,5.154
1016,6.692
1017,8.761
1018,10.496
1019,12.214
1020,13.795
1021,15.863
1022,19.282
1023,25.000
1024,31.615
1025,36.974
1026,43.479
1027,47.915
1028,49.060
1029,48.248
1030,47.761
1031,47.248
1032,46.966
1033,43.863
1034,38.812
1035,33.333
1036,27.863
1037,20.256
1038,13.051
1039,9.547
1040,8.197
1041,7.410
1042,6.444
1043,5.274
1044,4.179
1045,3.573
1046,3.556
1047,3.547
1048,3.632
1049,3.393
1050,3.094
1051,2.889
1052,2.803
1053,2.812
1054,3.051
1055,3.333
1056,3.949
1057,4.496
1058,4.385
1059,4.197
1060,3.556
1061,3.513
1062,3.274
1063,3.325
1064,3.368
1065,3.598
1066,4.068
1067,4.513
1068,4.821
1069,4.974
1070,5.453
1071,5.513
1072,4.769
1073,4.128
1074,3.641
1075,3.265
1076,3.256
1077,3.060
1078,2.932
1079,3.162
1080,3.017
1081,2.991
1082,3.368
1083,3.607
1084,4.094
1085,4.308
1086,4.701
1087,5.000
1088,5.564
1089,6.034
1090,6.641
1091,7.085
1092,5.675
1093,5.231
1094,4.812
1095,4.684
1096,4.769
1097,4.325
1098,4.026
1099,3.829
1100,3.872
1101,3.966
1102,4.573
1103,4.821
1104,5.188
1105,5.726
1106,6.453
1107,7.564
1108,9.513
1109,11.735
1110,14.897
1111,18.265
1112,21.675
1113,23.598
1114,24.222
1115,25.709
1116,28.667
1117,32.009
1118,37.821
1119,43.855
1120,49.650
1121,55.359
1122,58.504
1123,59.915
1124,62.359
1125,62.026
1126,61.154
1127,59.256
1128,55.675
1129,49.231
1130,37.821
1131,29.761
1132,26.675
1133,26.470
1134,27.692
1135,26.812
1136,24.248
1137,19.957
1138,15.350
1139,13.256
1140,13.094
1141,14.752
1142,18.410
1143,20.128
1144,19.350
1145,17.923
1146,15.641
1147,12.530
1148,10.410
1149,9.846
1150,10.410
1151,10.547
1152,10.957
1153,10.667
1154,10.513
1155,10.179
1156,9.812
1157,9.282
1158,9.650
1159,10.735
1160,11.274
1161,12.205
1162,13.205
1163,12.880
1164,11.897
1165,10.915
1166,9.479
1167,6.991
1168,5.060
1169,4.419
1170,4.419
1171,4.538
1172,4.829
1173,5.145
1174,5.641
1175,6.094
1176,5.479
1177,5.179
1178,4.897
1179,4.974
1180,5.034
1181,5.060
1182,5.239
1183,5.479
1184,5.496
1185,5.162
1186,4.701
1187,4.026
1188,3.444
1189,3.299
1190,3.333
1191,3.427
1192,3.923
1193,4.821
1194,5.239
1195,5.949
1196,6.598
1197,6.872
1198,7.325
1199,7.043
1200,6.863
1201,8.043
1202,9.923
1203,11.154
1204,11.906
1205,12.803
1206,14.487
1207,16.359
1208,17.308
1209,18.256
1210,19.564
1211,21.043
1212,24.496
1213,29.419
1214,36.299
1215,43.179
1216,49.162
1217,52.812
1218,54.120
1219,54.838
1220,55.274
1221,54.120
1222,51.915
1223,49.094
1224,44.265
1225,38.761
1226,34.709
1227,32.658
1228,32.778
1229,31.615
1230,28.974
1231,24.966
1232,17.556
1233,12.838
1234,10.940
1235,11.034
1236,12.556
1237,13.205
1238,13.256
1239,12.248
1240,10.615
1241,9.538
1242,8.308
1243,7.838
1244,7.949
1245,8.145
1246,8.846
1247,9.385
1248,9.863
1249,11.333
1250,12.479
1251,14.436
1252,17.393
1253,19.436
1254,18.085
1255,16.701
1256,14.188
1257,13.385
1258,13.769
1259,14.350
1260,14.453
1261,14.436
1262,14.650
1263,14.453
1264,14.103
1265,15.590
1266,17.513
1267,18.051
1268,18.726
1269,19.607
1270,19.479
1271,18.077
1272,15.316
1273,11.573
1274,8.615
1275,6.966
1276,6.795
1277,7.650
1278,9.650
1279,10.949
1280,11.709
1281,10.598
1282,9.222
1283,8.179
1284,7.556
1285,7.077
1286,7.239
1287,7.487
1288,7.726
1289,8.735
1290,9.897
1291,11.530
1292,12.017
1293,11.342
1294,10.598
1295,10.342
1296,10.650
1297,12.538
1298,15.624
1299,17.470
1300,17.940
1301,17.889
1302,15.103
1303,12.607
1304,11.248
1305,10.641
1306,11.128
1307,13.214
1308,16.462
1309,18.385
1310,18.000
1311,16.350
1312,13.863
1313,12.282
1314,10.812
1315,9.615
1316,8.265
1317,7.598
1318,7.231
1319,6.342
1320,5.487
1321,4.709
1322,4.111
1323,4.162
1324,4.299
1325,4.504
1326,5.214
1327,6.094
1328,6.692
1329,7.291
1330,7.949
1331,8.650
1332,8.786
1333,8.427
1334,8.026
1335,7.453
1336,6.829
1337,6.735
1338,6.325
1339,6.462
1340,7.308
1341,8.222
1342,10.085
1343,12.786
1344,16.256
1345,19.145
1346,21.692
1347,23.573
1348,23.137
1349,22.692
1350,22.504
1351,21.957
1352,22.325
1353,21.855
1354,20.974
1355,19.256
1356,17.359
1357,16.274
1358,16.513
1359,17.897
1360,20.504
1361,22.744
1362,24.342
1363,23.889
1364,21.786
1365,20.171
1366,19.077
1367,20.214
1368,24.838
1369,31.179
1370,35.521
1371,37.932
1372,37.846
1373,36.761
1374,32.632
1375,29.573
1376,28.128
1377,25.675
1378,23.607
1379,23.162
1380,25.744
1381,28.863
1382,32.718
1383,39.709
1384,47.658
1385,54.556
1386,58.863
1387,61.385
1388,65.496
1389,67.880
1390,66.581
1391,64.650
1392,62.735
1393,62.214
1394,63.222
1395,63.265
1396,64.436
1397,67.658
1398,69.359
1399,73.726
1400,88.889
1401,110.479
1402,121.487
1403,128.812
1404,131.632
1405,129.256
1406,124.179
1407,119.205
1408,108.094
1409,90.983
1410,71.436
1411,59.744
1412,50.932
1413,45.966
1414,43.051
1415,43.692
1416,47.077
1417,50.410
1418,52.111
1419,51.068
1420,51.880
1421,50.573
1422,45.231
1423,38.000
1424,30.009
1425,26.120
1426,23.735
1427,23.838
1428,26.419
1429,30.547
1430,34.111
1431,35.350
1432,34.308
1433,32.103
1434,29.487
1435,26.154
1436,23.932
1437,22.863
1438,23.564
1439,25.846
1440,28.940
1441,30.855
1442,29.641
1443,28.786
1444,27.556
1445,23.231
1446,19.239
1447,18.256
1448,19.906
1449,21.769
1450,20.547
1451,21.487
1452,25.000
1453,30.974
1454,39.017
1455,45.385
1456,47.778
1457,47.932
1458,46.470
1459,44.496
1460,41.949
1461,40.385
1462,42.966
1463,45.410
1464,44.615
1465,44.701
1466,44.085
1467,45.094
1468,47.547
1469,50.923
1470,55.641
1471,61.487
1472,63.128
1473,59.504
1474,51.368
1475,41.692
1476,33.675
1477,30.444
1478,30.641
1479,33.846
1480,38.735
1481,42.957
1482,47.684
1483,55.573
1484,65.214
1485,72.393
1486,79.957
1487,90.855
1488,96.291
1489,98.291
1490,103.632
1491,117.726
1492,134.179
1493,144.564
1494,149.547
1495,159.043
1496,163.718
1497,163.034
1498,163.026
1499,165.308
1500,163.915
1501,159.026
1502,146.829
1503,132.470
1504,112.829
1505,100.231
1506,95.231
1507,89.376
1508,80.966
1509,76.026
1510,70.248
1511,63.761
1512,59.453
1513,62.256
1514,70.419
1515,78.137
1516,82.615
1517,82.974
1518,81.889
1519,79.188
1520,71.598
1521,63.368
1522,59.573
1523,61.709
1524,64.829
1525,63.256
1526,60.829
1527,62.137
1528,66.077
1529,71.137
1530,76.034
1531,77.675
1532,76.650
1533,73.863
1534,69.530
1535,64.692
1536,60.744
1537,61.709
1538,69.436
1539,73.359
1540,72.769
1541,73.598
1542,74.026
1543,75.641
1544,77.068
1545,77.991
1546,77.043
1547,76.009
1548,76.291
1549,76.726
1550,76.615
1551,74.487
1552,68.120
1553,61.957
1554,56.205
1555,52.709
1556,51.564
1557,52.462
1558,52.846
1559,51.333
1560,50.778
1561,51.009
1562,52.479
1563,57.504
1564,62.915
1565,67.325
1566,70.701
1567,73.641
1568,75.282
1569,76.009
1570,75.778
1571,74.855
1572,75.188
1573,75.821
1574,77.897
1575,85.538
1576,102.085
1577,115.419
1578,118.504
1579,123.009
1580,125.162
1581,128.419
1582,137.966
1583,150.564
1584,158.402
1585,166.957
1586,176.436
1587,186.197
1588,186.068
1589,184.564
1590,186.197
1591,189.359
1592,187.829
1593,184.991
1594,173.179
1595,159.932
1596,146.795
1597,139.872
1598,146.453
1599,149.291
1600,146.675
1601,141.966
1602,131.957
1603,110.692
1604,89.308
1605,88.068
1606,105.538
1607,124.692
1608,134.624
1609,140.239
1610,129.581
1611,111.333
1612,95.068
1613,96.769
1614,102.590
1615,114.821
1616,118.692
1617,113.171
1618,95.923
1619,83.692
1620,83.000
1621,84.325
1622,87.556
1623,92.846
1624,94.120
1625,92.778
1626,91.103
1627,99.188
1628,122.521
1629,142.308
1630,148.068
1631,150.709
1632,151.462
1633,145.179
1634,120.359
1635,92.265
1636,99.966
1637,121.427
1638,141.590
1639,146.496
1640,137.769
1641,129.222
1642,113.872
1643,102.299
1644,110.496
1645,126.573
1646,154.581
1647,165.094
1648,162.675
1649,152.538
1650,133.974
1651,118.786
1652,122.410
1653,145.197
1654,159.915
1655,161.171
1656,147.701
1657,129.803
1658,133.068
1659,152.427
1660,165.273
1661,169.051
1662,168.641
1663,169.889
1664,172.068
1665,177.966
1666,179.017
1667,179.684
1668,190.308
1669,204.496
1670,211.103
1671,215.530
1672,218.282
1673,221.949
1674,224.060
1675,227.479
1676,230.068
1677,231.949
1678,234.598
1679,240.940
1680,245.744
1681,246.966
1682,245.752
1683,244.043
1684,240.650
1685,234.906
1686,224.265
1687,214.376
1688,214.966
1689,217.359
1690,212.316
1691,206.949
1692,203.889
1693,191.846
1694,170.214
1695,163.487
1696,172.179
1697,186.897
1698,197.513
1699,205.017
1700,202.564
1701,190.239
1702,160.855
1703,145.359
1704,161.368
1705,170.880
1706,170.368
1707,167.436
1708,163.855
1709,154.308
1710,126.154
1711,96.650
1712,103.872
1713,126.162
1714,134.863
1715,133.496
1716,125.513
1717,114.923
1718,107.667
1719,113.590
1720,132.026
1721,144.453
1722,146.325
1723,136.470
1724,111.436
1725,95.274
1726,97.761
1727,110.863
1728,132.410
1729,144.376
1730,141.795
1731,126.556
1732,108.239
1733,102.214
1734,104.684
1735,105.436
1736,108.197
1737,115.718
1738,116.838
1739,107.308
1740,91.709
1741,89.590
1742,91.068
1743,93.556
1744,99.906
1745,101.709
1746,97.333
1747,90.316
1748,86.368
1749,84.915
1750,95.547
1751,114.171
1752,118.556
1753,116.068
1754,105.051
1755,91.598
1756,87.761
1757,98.462
1758,115.855
1759,123.564
1760,124.701
1761,127.590
1762,135.068
1763,143.581
1764,156.479
1765,165.436
1766,170.316
1767,175.838
1768,184.872
1769,192.521
1770,195.966
1771,196.838
1772,192.427
1773,185.453
1774,179.171
1775,170.983
1776,156.188
1777,138.761
1778,126.709
1779,129.000
1780,128.641
1781,126.650
1782,114.205
1783,97.179
1784,84.325
1785,81.479
1786,80.667
1787,80.145
1788,79.231
1789,78.812
1790,76.880
1791,73.846
1792,70.735
1793,68.607
1794,66.846
1795,65.966
1796,64.684
1797,62.932
1798,57.778
1799,53.855
1800,54.444
1801,55.145
1802,57.026
1803,62.342
1804,66.026
1805,70.872
1806,76.547
1807,79.504
1808,77.821
1809,75.060
1810,73.427
1811,70.342
1812,64.214
1813,62.487
1814,64.897
1815,68.915
1816,73.128
1817,77.547
1818,81.470
1819,82.581
1820,81.632
1821,80.479
1822,76.453
1823,69.291
1824,63.915
1825,64.487
1826,69.974
1827,76.444
1828,79.829
1829,80.103
1830,80.897
1831,83.274
1832,87.470
1833,91.564
1834,88.915
1835,84.897
1836,78.231
1837,74.043
1838,71.650
1839,71.316
1840,74.128
1841,80.248
1842,83.932
1843,83.462
1844,82.068
1845,82.359
1846,81.624
1847,84.949
1848,94.308
1849,99.906
1850,100.607
1851,101.009
1852,97.009
1853,96.444
1854,124.145
1855,141.957
1856,155.325
1857,167.248
1858,174.761
1859,175.897
1860,175.043
1861,173.983
1862,170.838
1863,164.034
1864,147.667
1865,129.094
1866,107.419
1867,89.684
1868,83.402
1869,76.650
1870,68.829
1871,63.291
1872,58.162
1873,56.265
1874,60.726
1875,66.932
1876,71.880
1877,75.590
1878,76.564
1879,77.650
1880,74.598
1881,69.256
1882,59.145
1883,52.462
1884,52.342
1885,54.111
1886,55.231
1887,56.855
1888,56.026
1889,51.658
1890,48.137
1891,47.957
1892,46.718
1893,45.932
1894,40.949
1895,36.427
1896,36.342
1897,33.855
1898,27.436
1899,21.983
1900,18.778
1901,18.812
1902,21.487
1903,25.077
1904,30.162
1905,36.658
1906,37.427
1907,35.632
1908,28.171
1909,24.692
1910,24.906
1911,28.504
1912,34.248
1913,39.607
1914,42.026
1915,44.205
1916,43.197
1917,41.906
1918,38.658
1919,34.316
1920,30.530
1921,31.410
1922,33.709
1923,35.154
1924,37.239
1925,40.675
1926,45.077
1927,47.726
1928,46.239
1929,44.880
1930,44.282
1931,42.761
1932,40.667
1933,39.709
1934,40.333
1935,42.547
1936,45.094
1937,48.060
1938,52.957
1939,56.564
1940,60.000
1941,61.846
1942,63.274
1943,66.957
1944,84.846
1945,100.667
1946,109.726
1947,117.205
1948,121.350
1949,120.761
1950,116.726
1951,109.889
1952,97.051
1953,78.778
1954,71.316
1955,69.521
1956,68.051
1957,69.291
1958,70.974
1959,70.547
1960,65.983
1961,58.701
1962,46.291
1963,38.632
1964,39.171
1965,42.274
1966,43.675
1967,44.034
1968,42.291
1969,39.350
1970,32.974
1971,28.427
1972,28.103
1973,30.094
1974,32.333
1975,32.709
1976,26.291
1977,21.564
1978,20.923
1979,22.145
1980,27.932
1981,33.812
1982,34.667
1983,36.855
1984,38.034
1985,37.436
1986,36.103
1987,36.590
1988,37.872
1989,37.009
1990,33.658
1991,29.248
1992,24.034
1993,22.026
1994,21.974
1995,22.821
1996,24.615
1997,26.504
1998,25.017
1999,22.504
2000,19.274
2001,16.880
2002,14.906
2003,13.786
2004,13.325
2005,12.718
2006,12.333
2007,12.983
2008,12.855
2009,11.932
2010,11.034
2011,9.308
2012,8.171
2013,7.889
2014,8.462
2015,9.342
2016,11.393
2017,13.530
2018,16.000
2019,16.829
2020,16.940
2021,17.222
2022,17.145
2023,17.188
2024,17.538
2025,18.034
2026,16.607
2027,13.675
2028,11.026
2029,9.128
2030,8.581
2031,8.795
2032,10.265
2033,12.641
2034,14.726
2035,17.171
2036,19.128
2037,19.821
2038,22.077
2039,24.333
2040,23.239
2041,20.906
2042,16.923
2043,13.487
2044,10.145
2045,7.624
2046,6.701
2047,6.205
2048,5.538
2049,5.650
2050,6.538
2051,8.111
2052,9.667
2053,11.393
2054,11.077
2055,10.436
2056,9.778
2057,9.504
2058,9.590
2059,11.479
2060,15.393
2061,20.872
2062,24.068
2063,26.205
2064,25.991
2065,23.598
2066,18.573
2067,13.923
2068,11.786
2069,10.872
2070,10.761
2071,11.359
2072,11.419
2073,12.085
2074,11.333
2075,10.231
2076,10.120
2077,9.752
2078,9.795
2079,10.291
2080,9.000
2081,7.838
2082,6.855
2083,6.581
2084,6.889
2085,7.897
2086,10.436
2087,12.530
2088,9.692
2089,7.145
2090,7.171
2091,7.632
2092,9.205
2093,11.325
2094,11.650
2095,11.479
2096,10.051
2097,9.607
2098,9.359
2099,9.991
2100,11.299
2101,12.402
2102,13.402
2103,14.231
2104,13.598
2105,13.359
2106,13.034
2107,13.470
2108,14.128
2109,14.709
2110,13.829
2111,12.692
2112,12.085
2113,13.060
2114,14.556
2115,15.829
2116,17.444
2117,20.162
2118,21.641
2119,23.581
2120,28.291
2121,34.145
2122,41.350
2123,49.846
2124,54.761
2125,57.547
2126,57.342
2127,56.718
2128,55.880
2129,53.333
2130,46.974
2131,41.103
2132,37.385
2133,33.923
2134,30.701
2135,28.068
2136,23.692
2137,18.291
2138,14.060
2139,12.427
2140,12.350
2141,12.590
2142,13.239
2143,14.128
2144,12.641
2145,11.530
2146,11.068
2147,10.368
2148,10.479
2149,10.906
2150,10.752
2151,10.410
2152,8.957
2153,8.496
2154,7.769
2155,7.632
2156,8.368
2157,8.547
2158,8.650
2159,9.145
2160,9.197
2161,8.983
2162,8.769
2163,8.214
2164,7.718
2165,6.803
2166,5.658
2167,4.564
2168,3.667
2169,3.256
2170,3.145
2171,3.402
2172,4.179
2173,5.162
2174,6.299
2175,7.068
2176,6.983
2177,6.915
2178,7.316
2179,7.940
2180,9.145
2181,10.949
2182,10.547
2183,9.769
2184,9.009
2185,8.778
2186,8.897
2187,9.162
2188,10.231
2189,11.504
2190,12.231
2191,13.077
2192,11.821
2193,10.667
2194,9.462
2195,8.581
2196,8.171
2197,7.983
2198,8.205
2199,8.513
2200,8.880
2201,9.701
2202,11.453
2203,14.410
2204,16.709
2205,19.017
2206,21.009
2207,25.068
2208,31.624
2209,40.034
2210,47.564
2211,54.239
2212,58.368
2213,60.863
2214,62.966
2215,65.880
2216,66.632
2217,62.598
2218,57.299
2219,53.829
2220,46.487
2221,38.547
2222,31.359
2223,24.350
2224,19.145
2225,15.179
2226,12.197
2227,10.675
2228,10.077
2229,9.769
2230,10.265
2231,11.248
2232,11.350
2233,11.085
2234,9.410
2235,7.564
2236,6.308
2237,4.991
2238,4.573
2239,4.214
2240,4.214
2241,4.615
2242,4.632
2243,4.615
2244,4.470
2245,4.043
2246,3.650
2247,3.547
2248,3.043
2249,2.949
2250,2.812
2251,2.872
2252,2.991
2253,3.205
2254,3.496
2255,3.581
2256,3.735
2257,3.701
2258,3.915
2259,4.068
2260,4.222
2261,4.402
2262,4.299
2263,4.274
2264,4.248
2265,4.145
2266,4.103
2267,4.179
2268,4.171
2269,4.188
2270,3.846
2271,3.376
2272,3.274
2273,3.291
2274,3.556
2275,4.103
2276,4.786
2277,5.735
2278,6.436
2279,6.598
2280,6.214
2281,6.154
2282,6.444
2283,6.812
2284,7.043
2285,7.239
2286,7.624
2287,8.068
2288,8.316
2289,9.393
2290,11.667
2291,14.162
2292,16.974
2293,19.573
2294,19.197
2295,20.120
2296,23.077
2297,28.103
2298,34.615
2299,39.855
2300,43.051
2301,46.179
2302,47.393
2303,48.991
2304,50.692
2305,51.325
2306,48.692
2307,44.103
2308,38.325
2309,31.795
2310,26.265
2311,22.068
2312,18.949
2313,17.530
2314,15.222
2315,12.376
2316,8.863
2317,6.222
2318,5.496
2319,4.889
2320,4.385
2321,4.154
2322,3.821
2323,3.632
2324,3.538
2325,3.923
2326,4.744
2327,5.590
2328,6.034
2329,6.154
2330,6.342
2331,6.060
2332,5.855
2333,5.718
2334,5.128
2335,4.453
2336,3.889
2337,3.769
2338,3.632
2339,3.684
2340,3.701
2341,3.855
2342,4.085
2343,4.385
2344,4.333
2345,4.632
2346,4.949
2347,5.248
2348,5.171
2349,4.795
2350,4.256
2351,4.051
2352,3.632
2353,3.410
2354,3.453
2355,3.624
2356,3.957
2357,3.974
2358,3.521
2359,3.248
2360,2.615
2361,2.427
2362,2.436
2363,2.650
2364,3.231
2365,3.573
2366,4.120
2367,4.325
2368,3.915
2369,4.043
2370,4.239
2371,4.137
2372,4.137
2373,4.453
2374,4.359
2375,4.154
2376,3.436
2377,3.444
2378,3.838
2379,3.940
2380,3.923
2381,4.000
2382,4.368
2383,5.154
2384,6.778
2385,9.239
2386,12.607
2387,16.641
2388,21.530
2389,25.282
2390,26.607
2391,26.274
2392,23.726
2393,21.966
2394,17.350
2395,11.991
2396,8.368
2397,6.444
2398,5.068
2399,4.103
2400,3.402
2401,3.538
2402,3.615
2403,3.282
2404,3.120
2405,3.684
2406,4.282
2407,4.744
2408,4.521
2409,3.889
2410,3.282
2411,3.239
2412,3.231
2413,3.214
2414,3.265
2415,3.359
2416,3.385
2417,3.487
2418,3.231
2419,2.940
2420,3.103
2421,3.231
2422,3.120
2423,2.897
2424,2.470
2425,2.632
2426,2.547
2427,2.444
2428,2.590
2429,2.547
2430,2.342
2431,2.333
2432,2.094
2433,2.154
2434,2.376
2435,2.487
2436,2.581
2437,2.598
2438,2.667
2439,2.726
2440,2.821
2441,3.051
2442,3.248
2443,3.103
2444,2.940
2445,2.675
2446,2.684
2447,2.718
2448,2.547
2449,2.607
2450,2.675
2451,2.744
2452,2.521
2453,2.120
2454,1.786
2455,1.709
2456,1.632
2457,1.761
2458,2.060
2459,2.205
2460,2.316
2461,2.359
2462,2.538
2463,2.735
2464,2.709
2465,2.855
2466,3.863
2467,4.564
2468,5.872
2469,7.521
2470,9.120
2471,11.359
2472,13.598
2473,17.103
2474,19.761
2475,19.821
2476,18.427
2477,16.983
2478,15.222
2479,12.453
2480,9.821
2481,8.222
2482,6.923
2483,5.444
2484,4.171
2485,3.248
2486,2.863
2487,2.590
2488,2.564
2489,2.453
2490,2.265
2491,1.991
2492,1.838
2493,1.812
2494,1.744
2495,1.684
2496,1.470
2497,1.427
2498,1.538
2499,1.538
2500,1.265
2501,1.162
2502,1.248
2503,1.419
2504,1.359
2505,1.248
2506,1.333
2507,1.547
2508,1.598
2509,1.504
2510,1.573
2511,1.778
2512,1.812
2513,1.641
2514,1.624
2515,1.650
2516,1.752
2517,1.744
2518,1.778
2519,1.709
2520,1.444
2521,1.726
2522,2.000
2523,1.957
2524,1.974
2525,2.342
2526,2.504
2527,2.581
2528,2.325
2529,2.120
2530,2.068
2531,2.009
2532,1.846
2533,1.744
2534,2.145
2535,2.744
2536,2.624
2537,2.564
2538,2.521
2539,2.342
2540,2.265
2541,2.222
2542,2.171
2543,2.274
2544,2.179
2545,2.060
2546,2.077
2547,2.231
2548,2.966
2549,3.615
2550,4.803
2551,6.043
2552,7.650
2553,9.829
2554,13.282
2555,18.291
2556,22.821
2557,24.179
2558,24.684
2559,26.444
2560,26.103
2561,23.718
2562,21.299
2563,18.504
2564,15.376
2565,11.735
2566,8.932
2567,7.051
2568,5.658
2569,4.863
2570,4.171
2571,3.726
2572,3.521
2573,3.274
2574,3.000
2575,2.675
2576,2.162
2577,1.966
2578,2.051
2579,1.889
2580,2.103
2581,2.128
2582,2.103
2583,1.991
2584,1.598
2585,1.487
2586,1.504
2587,1.564
2588,1.735
2589,1.786
2590,1.641
2591,1.581
2592,1.427
2593,1.436
2594,1.402
2595,1.538
2596,1.598
2597,1.752
2598,1.701
2599,1.650
2600,1.573
2601,1.402
2602,1.538
2603,1.641
2604,1.641
2605,1.598
2606,1.846
2607,2.034
2608,1.855
2609,2.085
2610,2.222
2611,2.214
2612,2.316
2613,2.419
2614,2.632
2615,2.786
2616,2.581
2617,2.350
2618,2.145
2619,2.017
2620,1.957
2621,2.120
2622,2.068
2623,1.991
2624,1.795
2625,1.838
2626,2.009
2627,1.983
2628,1.880
2629,1.932
2630,2.291
2631,2.598
2632,2.556
2633,2.889
2634,2.863
2635,2.838
2636,2.983
2637,3.863
2638,6.077
2639,8.761
2640,12.359
2641,16.179
2642,19.667
2643,21.821
2644,23.137
2645,22.487
2646,20.128
2647,16.812
2648,12.889
2649,9.342
2650,6.487
2651,5.068
2652,4.299
2653,3.393
2654,2.829
2655,2.769
2656,2.530
2657,2.188
2658,1.812
2659,1.803
2660,1.641
2661,1.444
2662,1.427
2663,1.667
2664,1.709
2665,1.530
2666,1.171
2667,1.171
2668,1.308
2669,1.368
2670,1.274
2671,1.444
2672,1.068
2673,0.949
2674,1.043
2675,1.188
2676,1.162
2677,0.974
2678,0.915
2679,0.983
2680,0.889
2681,1.077
2682,1.299
2683,1.316
2684,1.274
2685,1.188
2686,1.085
2687,1.043
2688,1.051
2689,1.154
2690,1.205
2691,1.316
2692,1.402
2693,1.564
2694,1.744
2695,1.906
2696,1.932
2697,1.872
2698,1.436
2699,1.256
2700,1.120
2701,1.171
2702,1.333
2703,1.658
2704,1.419
2705,1.231
2706,1.274
2707,1.239
2708,1.427
2709,1.342
2710,1.291
2711,1.350
2712,1.051
2713,1.179
2714,1.350
2715,1.598
2716,1.778
2717,1.957
2718,2.410
2719,2.641
2720,2.726
2721,3.026
2722,3.564
2723,4.906
2724,6.692
2725,9.188
2726,11.795
2727,12.043
2728,12.145
2729,12.556
2730,12.897
2731,11.496
2732,10.094
2733,7.128
2734,5.590
2735,4.598
2736,3.923
2737,2.940
2738,2.188
2739,1.821
2740,1.675
2741,1.487
2742,1.573
2743,1.812
2744,1.650
2745,1.487
2746,1.120
2747,0.872
2748,1.077
2749,1.111
2750,1.521
2751,1.761
2752,1.291
2753,1.453
2754,1.231
2755,1.068
2756,1.179
2757,1.316
2758,1.333
2759,1.171
2760,0.991
2761,1.034
2762,1.171
2763,1.214
2764,1.308
2765,1.231
2766,1.205
2767,1.179
2768,0.923
2769,1.162
2770,1.427
2771,1.436
2772,1.239
2773,1.111
2774,0.983
2775,1.111
2776,0.974
2777,1.103
2778,1.154
2779,0.983
2780,0.949
2781,1.120
2782,1.265
2783,1.419
2784,1.145
2785,1.299
2786,1.436
2787,1.299
2788,1.128
2789,1.299
2790,1.513
2791,1.436
2792,1.085
2793,1.162
2794,1.427
2795,1.222
2796,1.265
2797,1.436
2798,1.615
2799,1.761
2800,1.641
2801,1.709
2802,1.769
2803,2.034
2804,2.889
2805,3.504
2806,4.231
2807,5.017
2808,5.855
2809,6.735
2810,7.342
2811,7.291
2812,7.188
2813,6.120
2814,5.282
2815,4.684
2816,4.179
2817,3.342
2818,2.692
2819,2.188
2820,2.026
2821,1.735
2822,1.487
2823,1.444
2824,1.222
2825,1.291
2826,1.316
2827,1.205
2828,1.145
2829,1.453
2830,1.444
2831,1.368
2832,1.094
2833,1.162
2834,0.957
2835,0.949
2836,0.846
2837,0.889
2838,0.949
2839,0.880
2840,1.111
2841,1.026
2842,0.983
2843,1.051
2844,0.957
2845,0.957
2846,1.026
2847,1.179
2848,1.111
2849,1.162
2850,1.197
2851,1.205
2852,1.188
2853,1.154
2854,1.111
2855,1.120
2856,0.872
2857,0.846
2858,0.795
2859,0.940
2860,1.162
2861,1.265
2862,1.316
2863,1.402
2864,1.179
2865,1.282
2866,0.974
2867,0.735
2868,0.726
2869,0.838
2870,0.821
2871,0.675
2872,0.479
2873,0.897
2874,1.103
2875,0.940
2876,0.795
2877,0.949
2878,1.009
2879,0.906
2880,0.786
2881,1.120
2882,1.085
2883,1.068
2884,1.239
2885,1.444
2886,1.675
2887,2.197
2888,2.923
2889,4.274
2890,5.538
2891,5.556
2892,5.504
2893,5.812
2894,5.504
2895,4.470
2896,2.692
2897,1.863
2898,1.368
2899,1.248
2900,1.299
2901,1.350
2902,1.333
2903,1.162
2904,1.171
2905,1.239
2906,1.205
2907,0.923
2908,0.769
2909,0.709
2910,0.615
2911,0.906
2912,0.590
2913,0.795
2914,0.915
2915,0.889
2916,0.880
2917,1.009
2918,0.991
2919,0.957
2920,0.821
2921,0.744
2922,0.838
2923,1.060
2924,1.111
2925,0.940
2926,0.803
2927,0.786
2928,0.564
2929,0.838
2930,1.017
2931,1.017
2932,1.009
2933,1.103
2934,1.239
2935,1.479
2936,0.863
2937,0.872
2938,0.889
2939,0.940
2940,0.991
2941,1.188
2942,1.085
2943,0.932
2944,0.812
2945,0.949
2946,0.880
2947,0.752
2948,0.889
2949,1.068
2950,0.983
2951,0.658
2952,0.521
2953,0.846
2954,1.060
2955,1.085
2956,1.034
2957,0.940
2958,0.991
2959,0.991
2960,1.077
2961,1.103
2962,1.171
2963,1.154
2964,1.205
2965,1.308
2966,1.496
2967,1.573
2968,1.726
2969,2.265
2970,2.991
2971,3.137
2972,2.769
2973,2.325
2974,2.077
2975,1.615
2976,1.000
2977,0.966
2978,0.761
2979,0.744
2980,0.812
2981,1.017
2982,0.915
2983,0.803
2984,0.615
2985,0.632
2986,0.641
2987,0.692
2988,0.863
2989,0.889
2990,0.855
2991,0.991
2992,0.957
2993,0.915
2994,0.915
2995,0.812
2996,0.761
2997,0.940
2998,1.034
2999,1.060
3000,0.880
3001,1.009
3002,0.932
3003,0.607
3004,0.513
3005,0.650
3006,0.821
3007,0.735
3008,0.513
3009,0.615
3010,0.795
3011,0.897
3012,0.744
3013,0.667
3014,0.692
3015,0.744
3016,0.436
3017,0.564
3018,0.667
3019,0.667
3020,0.692
3021,0.897
3022,0.846
3023,0.667
3024,0.769
3025,0.974
3026,0.872
3027,0.795
3028,0.641
3029,0.821
3030,0.897
3031,0.795
3032,0.846
3033,0.846
3034,0.769
3035,0.744
3036,0.974
3037,0.923
3038,0.923
3039,1.000
3040,0.872
3041,0.863
3042,0.915
3043,1.043
3044,0.923
3045,0.940
3046,1.000
3047,1.248
3048,1.504
3049,1.179
3050,0.991
3051,0.966
3052,1.000
3053,0.795
3054,0.838
3055,1.179
3056,0.795
3057,0.615
3058,0.590
3059,0.923
3060,0.974
3061,0.590
3062,0.615
3063,0.795
3064,0.692
3065,0.795
3066,0.846
3067,0.897
3068,0.769
3069,0.795
3070,0.846
3071,0.872
3072,0.513
3073,0.718
3074,0.744
3075,0.795
3076,0.744
3077,0.897
3078,0.872
3079,0.949
3080,0.701
3081,0.812
3082,0.949
3083,0.915
3084,0.709
3085,0.838
3086,0.957
3087,0.983
3088,0.615
3089,0.821
3090,0.846
3091,0.667
3092,0.718
3093,0.949
3094,0.974
3095,0.872
3096,0.667
3097,0.744
3098,0.872
3099,0.795
3100,0.718
3101,0.692
3102,0.846
3103,0.923
3104,0.641
3105,0.744
3106,0.872
3107,0.821
3108,0.846
3109,0.821
3110,0.872
3111,0.897
3112,0.744
3113,0.744
3114,0.692
3115,0.821
3116,0.769
3117,0.821
3118,0.744
3119,0.769
3120,0.769
3121,0.846
3122,0.872
3123,0.769
3124,0.744
3125,0.718
3126,0.769
3127,0.744
3128,0.692
3129,0.769
3130,0.846
3131,0.846
3132,0.769
3133,0.641
3134,0.846
3135,0.872
3136,0.735
3137,0.855
3138,0.923
3139,0.957
3140,0.915
3141,0.923
3142,0.769
3143,0.513
3144,0.590
3145,0.641
3146,0.692
3147,0.718
3148,0.641
3149,0.615
3150,0.795
3151,1.051
3152,0.846
3153,0.846
3154,1.000
3155,0.949
3156,0.821
3157,0.846
3158,0.769
3159,0.872
3160,0.692
3161,0.795
3162,0.769
3163,0.692
3164,0.744
3165,0.667
3166,0.821
3167,0.846
3168,0.615
3169,0.718
3170,0.769
3171,0.667
3172,0.692
3173,0.769
3174,0.949
3175,0.923
3176,0.410
3177,0.436
3178,0.538
3179,0.385
3180,0.333
3181,0.564
3182,0.564
3183,0.462
3184,0.256
3185,0.487
3186,0.564
3187,0.564
3188,0.359
3189,0.487
3190,0.590
3191,0.564
3192,0.538
3193,0.513
3194,0.564
3195,0.513
3196,0.538
3197,0.462
3198,0.308
3199,0.564
3200,0.256
3201,0.256
3202,0.231
3203,0.282
3204,0.410
3205,0.385
3206,0.231
3207,0.436
3208,0.333
3209,0.462
3210,0.436
3211,0.410
3212,0.359
3213,0.333
3214,0.385
3215,0.462
3216,0.179
3217,0.128
3218,0.154
3219,0.256
3220,0.487
3221,0.436
3222,0.282
3223,0.154
3224,0.103
3225,0.103
3226,0.128
3227,0.385
3228,0.538
3229,0.590
3230,0.590
3231,0.487
3232,0.359
3233,0.231
3234,0.154
3235,0.256
3236,0.282
3237,0.308
3238,0.231
3239,0.231
3240,0.359
3241,0.436
3242,0.513
3243,0.513
3244,0.256
3245,0.282
3246,0.308
3247,0.436
3248,0.231
3249,0.462
3250,0.513
3251,0.436
3252,0.256
3253,0.256
3254,0.487
3255,0.487
3256,0.538
3257,0.538
3258,0.538
3259,0.564
3260,0.282
3261,0.385
3262,0.462
3263,0.615
3264,0.487
3265,0.564
3266,0.590
3267,0.538
3268,0.436
3269,0.641
3270,0.487
3271,0.590
3272,0.538
3273,0.462
3274,0.513
3275,0.462
3276,0.359
3277,0.513
3278,0.538
3279,0.615
3280,0.256
3281,0.282
3282,0.436
3283,0.462
3284,0.205
3285,0.103
3286,0.103
3287,0.282
3288,0.128
3289,0.282
3290,0.333
3291,0.231
3292,0.205
3293,0.436
3294,0.538
3295,0.436
3296,0.282
3297,0.205
3298,0.462
3299,0.410
3300,0.385
3301,0.513
3302,0.538
3303,0.564
3304,0.385
3305,0.410
3306,0.410
3307,0.462
3308,0.538
3309,0.513
3310,0.436
3311,0.462
3312,0.282
3313,0.410
3314,0.513
3315,0.487
3316,0.538
3317,0.564
3318,0.538
3319,0.590
3320,0.231
3321,0.205
3322,0.231
3323,0.205
3324,0.282
3325,0.308
3326,0.231
3327,0.231
3328,0.333
3329,0.410
3330,0.513
3331,0.615
3332,0.538
3333,0.385
3334,0.410
3335,0.410
3336,0.308
3337,0.256
3338,0.205
3339,0.256
3340,0.462
3341,0.410
3342,0.333
3343,0.436
3344,0.308
3345,0.308
3346,0.282
3347,0.308
3348,0.256
3349,0.333
3350,0.385
3351,0.487
3352,0.513
3353,0.462
3354,0.462
3355,0.385
3356,0.333
3357,0.410
3358,0.462
3359,0.615
3360,0.282
3361,0.308
3362,0.513
3363,0.513
3364,0.436
3365,0.154
3366,0.333
3367,0.590
3368,0.410
3369,0.462
3370,0.359
3371,0.256
3372,0.256
3373,0.256
3374,0.333
3375,0.333
3376,0.231
3377,0.231
3378,0.231
3379,0.308
3380,0.256
3381,0.256
3382,0.179
3383,0.462
3384,0.282
3385,0.205
3386,0.308
3387,0.308
3388,0.333
3389,0.333
3390,0.308
3391,0.282
3392,0.410
3393,0.256
3394,0.205
3395,0.410
3396,0.538
3397,0.487
3398,0.538
3399,0.538
3400,0.128
3401,0.205
3402,0.359
3403,0.410
3404,0.256
3405,0.128
3406,0.154
3407,0.231
3408,0.308
3409,0.231
3410,0.179
3411,0.256
3412,0.282
3413,0.231
3414,0.256
3415,0.256
3416,0.385
3417,0.538
3418,0.590
3419,0.462
3420,0.282
3421,0.333
3422,0.256
3423,0.077
3424,0.103
3425,0.179
3426,0.410
3427,0.462
3428,0.282
3429,0.282
3430,0.154
3431,0.410
3432,0.231
3433,0.077
3434,0.051
3435,0.103
3436,0.154
3437,0.154
3438,0.103
3439,0.051
3440,0.000
3441,0.154
3442,0.359
3443,0.436
3444,0.205
3445,0.026
3446,0.051
3447,0.103
3448,0.179
3449,0.179
3450,0.103
3451,0.103
3452,0.103
3453,0.103
3454,0.179
3455,0.154
3456,0.179
3457,0.256
3458,0.410
3459,0.359
3460,0.256
3461,0.077
3462,0.077
3463,0.051
3464,0.000
3465,0.000
3466,0.103
3467,0.128
3468,0.103
3469,0.051
3470,0.128
3471,0.154
