Distance_(pixels),Gray_Value
0,30.000
1,29.968
2,27.614
3,25.588
4,24.731
5,25.746
6,27.665
7,27.889
8,27.461
9,29.757
10,29.537
11,28.984
12,29.333
13,29.747
14,29.853
15,29.935
16,29.159
17,28.128
18,27.096
19,27.363
20,28.981
21,29.335
22,29.367
23,29.034
24,29.459
25,28.470
26,27.921
27,28.471
28,28.442
29,28.410
30,27.382
31,26.350
32,25.300
33,24.810
34,25.166
35,25.104
36,25.756
37,29.083
38,30.536
39,28.963
40,28.698
41,30.628
42,32.330
43,33.695
44,33.633
45,33.335
46,32.802
47,30.844
48,29.578
49,30.546
50,29.949
51,28.718
52,26.521
53,25.961
54,27.164
55,27.824
56,28.758
57,27.527
58,26.267
59,24.290
60,22.527
61,27.376
62,32.265
63,32.327
64,31.653
65,30.606
66,29.625
67,27.685
68,26.676
69,28.745
70,30.648
71,28.816
72,29.328
73,28.183
74,28.155
75,27.150
76,27.123
77,31.511
78,35.531
79,33.869
80,34.658
81,29.022
82,25.624
83,27.961
84,30.956
85,30.959
86,30.305
87,31.043
88,32.056
89,32.084
90,33.087
91,33.116
92,33.132
93,32.673
94,32.667
95,32.667
96,32.667
97,33.204
98,33.661
99,33.098
100,32.746
101,32.725
102,31.353
103,29.363
104,28.677
105,27.036
106,26.672
107,26.667
108,26.063
109,26.589
110,26.910
111,26.670
112,26.667
113,24.699
114,25.469
115,25.664
116,26.500
117,28.497
118,29.439
119,29.438
120,30.318
121,29.279
122,28.294
123,27.310
124,27.358
125,30.299
126,31.309
127,30.351
128,27.703
129,26.667
130,25.616
131,25.665
132,27.529
133,29.627
134,30.648
135,31.647
136,31.504
137,32.644
138,33.126
139,32.910
140,33.201
141,30.717
142,28.466
143,28.426
144,26.106
145,25.776
146,27.301
147,30.604
148,34.606
149,35.934
150,35.346
151,35.333
152,34.011
153,33.040
154,33.770
155,33.344
156,32.356
157,33.800
158,34.795
159,33.367
160,31.232
161,29.359
162,27.966
163,29.545
164,31.026
165,32.115
166,32.218
167,32.318
168,31.692
169,30.715
170,30.112
171,30.362
172,30.843
173,32.038
174,31.797
175,28.834
176,30.101
177,29.177
178,30.089
179,31.254
180,32.956
181,35.063
182,34.227
183,30.359
184,28.126
185,29.028
186,30.985
187,31.022
188,30.349
189,33.253
190,35.254
191,34.278
192,32.385
193,34.278
194,35.306
195,35.128
196,33.264
197,32.357
198,31.038
199,31.643
200,32.422
201,35.116
202,36.428
203,34.460
204,32.638
205,33.510
206,34.735
207,35.711
208,35.041
209,34.353
210,33.697
211,33.693
212,34.679
213,36.285
214,36.333
215,35.512
216,33.515
217,32.453
218,32.445
219,31.911
220,31.170
221,33.007
222,33.440
223,32.391
224,31.522
225,29.482
226,28.370
227,28.854
228,28.453
229,28.735
230,29.650
231,29.964
232,27.365
233,28.899
234,30.609
235,31.633
236,32.633
237,32.667
238,32.464
239,33.251
240,32.023
241,31.200
242,30.543
243,30.662
244,30.777
245,30.765
246,29.705
247,28.702
248,26.786
249,27.599
250,28.612
251,29.631
252,29.641
253,29.665
254,27.826
255,25.861
256,25.672
257,27.504
258,28.626
259,28.787
260,29.905
261,32.868
262,34.605
263,32.198
264,29.560
265,27.522
266,27.431
267,28.619
268,29.268
269,31.525
270,33.525
271,33.024
272,32.683
273,31.050
274,30.621
275,31.536
276,31.543
277,30.550
278,30.889
279,31.851
280,30.914
281,31.818
282,30.883
283,27.947
284,27.171
285,29.490
286,30.090
287,28.178
288,28.587
289,30.516
290,32.505
291,33.185
292,32.881
293,32.250
294,29.962
295,27.921
296,26.168
297,26.789
298,28.345
299,32.030
300,32.931
301,31.075
302,28.327
303,28.217
304,26.734
305,27.623
306,27.667
307,26.817
308,27.627
309,28.547
310,28.603
311,27.709
312,27.667
313,28.637
314,29.622
315,30.606
316,31.271
317,32.240
318,32.330
319,31.455
320,30.793
321,30.672
322,29.712
323,27.759
324,27.501
325,29.249
326,30.104
327,30.126
328,31.381
329,32.609
330,33.620
331,32.019
332,31.680
333,31.003
334,30.986
335,30.049
336,30.970
337,31.033
338,31.049
339,30.686
340,30.272
341,31.188
342,32.070
343,32.569
344,33.119
345,33.161
346,31.741
347,31.216
348,32.595
349,35.098
350,35.645
351,35.106
352,34.744
353,34.712
354,34.352
355,34.954
356,34.584
357,34.681
358,34.701
359,34.037
360,33.051
361,33.949
362,34.949
363,34.052
364,33.052
365,31.874
366,31.359
367,31.481
368,33.236
369,36.059
370,38.222
371,36.526
372,31.674
373,30.446
374,31.598
375,31.640
376,33.536
377,32.724
378,31.759
379,31.704
380,34.459
381,37.373
382,38.367
383,36.572
384,36.763
385,38.564
386,40.557
387,38.623
388,36.429
389,33.627
390,30.423
391,31.586
392,33.861
393,33.767
394,35.646
395,35.763
396,35.114
397,35.096
398,34.174
399,36.025
400,37.650
401,39.658
402,39.425
403,37.139
404,35.649
405,33.666
406,33.031
407,34.396
408,35.439
409,38.339
410,39.250
411,37.903
412,37.262
413,35.759
414,34.168
415,34.058
416,35.296
417,34.081
418,33.059
419,34.265
420,36.905
421,39.271
422,40.644
423,40.292
424,37.193
425,34.593
426,34.853
427,36.557
428,37.952
429,38.003
430,36.889
431,35.054
432,33.343
433,32.271
434,32.011
435,32.000
436,33.876
437,39.627
438,41.922
439,40.160
440,39.980
441,38.100
442,36.123
443,36.000
444,36.000
445,34.370
446,34.212
447,34.126
448,36.692
449,36.054
450,35.375
451,34.599
452,33.473
453,32.292
454,31.703
455,33.307
456,35.275
457,35.908
458,35.960
459,35.041
460,34.992
461,35.623
462,35.644
463,34.693
464,36.583
465,36.738
466,36.361
467,35.750
468,34.624
469,34.531
470,34.657
471,35.133
472,36.596
473,34.369
474,33.593
475,34.903
476,36.784
477,37.109
478,36.238
479,36.102
480,38.784
481,39.925
482,40.941
483,37.874
484,34.832
485,36.472
486,38.145
487,38.017
488,37.282
489,36.084
490,35.070
491,34.832
492,34.835
493,34.060
494,33.070
495,32.179
496,34.486
497,34.746
498,36.530
499,37.546
500,37.939
501,36.141
502,34.143
503,33.081
504,33.955
505,34.853
506,34.646
507,34.823
508,33.921
509,33.682
510,32.739
511,32.411
512,34.191
513,31.799
514,31.488
515,34.059
516,35.602
517,35.905
518,34.064
519,32.305
520,31.705
521,31.016
522,32.348
523,32.130
524,32.733
525,34.304
526,34.031
527,35.487
528,35.214
529,33.162
530,32.075
531,32.924
532,35.285
533,35.939
534,35.705
535,35.252
536,37.032
537,36.770
538,37.547
539,38.563
540,37.005
541,34.103
542,33.877
543,34.480
544,34.451
545,33.200
546,31.510
547,31.075
548,32.707
549,34.682
550,36.915
551,37.108
552,38.045
553,33.711
554,31.654
555,32.863
556,34.892
557,38.989
558,40.860
559,39.379
560,37.587
561,39.201
562,38.476
563,34.731
564,32.531
565,32.336
566,33.266
567,31.605
568,32.267
569,32.277
570,32.327
571,31.586
572,30.733
573,33.349
574,35.452
575,34.873
576,34.840
577,35.600
578,35.903
579,34.259
580,33.090
581,33.686
582,34.284
583,34.333
584,33.050
585,33.593
586,34.582
587,36.195
588,36.888
589,36.339
590,35.355
591,33.800
592,31.397
593,33.155
594,33.828
595,33.423
596,31.520
597,30.868
598,32.204
599,34.163
600,35.248
601,34.811
602,33.223
603,31.423
604,30.023
605,29.936
606,30.882
607,32.421
608,33.186
609,34.821
610,36.779
611,36.023
612,33.631
613,35.037
614,37.014
615,36.597
616,36.350
617,36.492
618,36.748
619,38.369
620,39.833
621,40.198
622,39.278
623,39.014
624,38.563
625,38.614
626,38.692
627,39.593
628,40.577
629,40.655
630,41.819
631,41.903
632,40.168
633,40.837
634,40.688
635,41.576
636,41.480
637,41.346
638,42.146
639,43.285
640,42.464
641,42.240
642,42.937
643,41.453
644,40.215
645,43.949
646,47.705
647,46.489
648,45.097
649,43.792
650,44.003
651,44.068
652,43.192
653,44.038
654,44.694
655,44.764
656,43.873
657,42.889
658,43.285
659,45.146
660,44.871
661,44.759
662,45.423
663,45.034
664,45.984
665,45.705
666,46.737
667,47.143
668,48.270
669,49.577
670,49.956
671,50.260
672,49.454
673,48.735
674,49.330
675,49.416
676,49.432
677,48.940
678,47.246
679,46.872
680,46.838
681,46.542
682,45.624
683,45.543
684,46.462
685,47.478
686,48.494
687,48.607
688,48.584
689,45.980
690,45.074
691,46.800
692,48.801
693,49.901
694,49.399
695,49.333
696,49.258
697,48.243
698,47.998
699,47.038
700,46.123
701,46.154
702,45.415
703,45.158
704,46.022
705,46.106
706,46.090
707,46.307
708,47.233
709,48.494
710,48.940
711,49.598
712,48.768
713,49.247
714,50.228
715,50.333
716,50.333
717,49.435
718,49.333
719,49.333
720,47.239
721,46.535
722,46.051
723,46.461
724,47.427
725,48.850
726,49.897
727,50.000
728,50.532
729,49.517
730,48.180
731,47.704
732,47.359
733,47.633
734,48.562
735,48.667
736,48.417
737,46.189
738,45.019
739,45.586
740,46.263
741,48.123
742,49.228
743,47.395
744,45.827
745,44.651
746,43.760
747,44.467
748,44.657
749,44.602
750,46.099
751,46.329
752,45.760
753,44.782
754,43.759
755,43.620
756,44.516
757,46.347
758,46.588
759,45.765
760,45.575
761,44.762
762,45.558
763,46.558
764,46.667
765,45.613
766,44.577
767,45.343
768,45.848
769,45.613
770,46.046
771,46.525
772,47.110
773,47.764
774,48.378
775,49.047
776,50.286
777,50.418
778,50.769
779,51.153
780,50.818
781,50.361
782,49.387
783,47.933
784,48.452
785,48.501
786,48.517
787,49.363
788,48.726
789,47.851
790,46.763
791,45.244
792,45.563
793,45.572
794,46.787
795,47.492
796,47.565
797,48.817
798,48.572
799,46.523
800,44.611
801,42.874
802,42.494
803,44.276
804,46.313
805,46.579
806,47.502
807,47.785
808,47.941
809,48.743
810,48.866
811,48.962
812,49.862
813,50.029
814,49.173
815,49.017
816,46.950
817,46.656
818,46.664
819,46.667
820,45.783
821,43.083
822,42.757
823,43.656
824,46.437
825,47.687
826,49.156
827,48.451
828,47.287
829,46.249
830,46.116
831,46.982
832,46.716
833,46.667
834,46.915
835,47.226
836,48.210
837,48.333
838,47.452
839,47.333
840,45.279
841,44.120
842,44.000
843,43.626
844,43.266
845,46.730
846,47.658
847,42.842
848,39.817
849,39.808
850,41.628
851,44.522
852,47.158
853,47.354
854,45.049
855,44.380
856,42.284
857,41.691
858,41.664
859,41.961
860,41.682
861,40.744
862,39.729
863,40.242
864,39.456
865,40.210
866,39.273
867,38.264
868,37.006
869,36.687
870,36.412
871,38.160
872,38.539
873,40.235
874,40.432
875,40.527
876,40.362
877,37.707
878,34.724
879,36.084
880,37.216
881,40.004
882,42.159
883,40.687
884,39.588
885,40.363
886,40.548
887,40.365
888,38.709
889,39.089
890,39.882
891,39.412
892,39.512
893,39.361
894,38.460
895,37.461
896,36.383
897,36.238
898,35.623
899,35.544
900,36.427
901,39.181
902,41.426
903,42.585
904,42.910
905,42.409
906,40.964
907,40.004
908,39.473
909,39.838
910,40.286
911,40.760
912,41.293
913,38.775
914,38.149
915,36.403
916,36.823
917,38.676
918,38.083
919,38.838
920,42.084
921,45.452
922,46.747
923,45.475
924,41.316
925,38.397
926,37.427
927,37.556
928,38.686
929,37.816
930,36.981
931,38.619
932,40.036
933,39.445
934,38.427
935,38.162
936,38.993
937,39.971
938,41.762
939,42.842
940,42.113
941,40.258
942,39.135
943,38.136
944,34.883
945,31.750
946,29.546
947,30.188
948,33.013
949,36.041
950,38.945
951,39.458
952,42.088
953,42.510
954,41.661
955,41.362
956,40.946
957,39.989
958,39.821
959,39.789
960,42.479
961,41.815
962,40.514
963,39.754
964,39.630
965,40.461
966,40.610
967,40.601
968,40.585
969,40.687
970,40.946
971,39.619
972,38.477
973,37.472
974,37.333
975,37.333
976,39.884
977,40.723
978,41.548
979,43.388
980,45.571
981,46.772
982,47.181
983,46.423
984,44.627
985,43.821
986,43.516
987,42.921
988,41.607
989,40.772
990,40.295
991,39.297
992,39.418
993,39.480
994,39.496
995,41.362
996,43.503
997,42.073
998,39.966
999,40.447
1000,42.243
1001,41.741
1002,40.803
1003,40.667
1004,39.829
1005,39.678
1006,39.994
1007,40.010
1008,42.195
1009,41.732
1010,41.655
1011,43.293
1012,43.650
1013,43.037
1014,42.836
1015,43.546
1016,45.311
1017,43.261
1018,41.472
1019,40.085
1020,40.326
1021,41.078
1022,41.217
1023,41.000
1024,39.967
1025,39.482
1026,39.741
1027,40.930
1028,41.344
1029,41.686
1030,42.585
1031,44.071
1032,42.199
1033,42.099
1034,41.700
1035,41.232
1036,41.591
1037,42.124
1038,42.237
1039,41.809
1040,43.329
1041,43.497
1042,43.398
1043,43.609
1044,43.178
1045,43.749
1046,44.728
1047,44.325
1048,44.111
1049,42.703
1050,42.688
1051,42.737
1052,42.113
1053,39.056
1054,36.504
1055,37.219
1056,41.465
1057,46.221
1058,51.729
1059,49.781
1060,44.198
1061,40.751
1062,38.606
1063,40.007
1064,43.710
1065,44.354
1066,46.578
1067,46.992
1068,45.309
1069,45.852
1070,46.000
1071,44.399
1072,43.074
1073,46.096
1074,48.186
1075,47.682
1076,45.219
1077,43.971
1078,43.975
1079,44.155
1080,46.233
1081,46.269
1082,46.426
1083,46.285
1084,46.382
1085,43.615
1086,39.597
1087,36.383
1088,39.371
1089,48.171
1090,56.124
1091,54.545
1092,48.659
1093,44.104
1094,42.425
1095,42.124
1096,45.880
1097,47.450
1098,48.916
1099,48.324
1100,47.215
1101,48.304
1102,50.616
1103,51.843
1104,50.941
1105,51.974
1106,52.552
1107,50.944
1108,49.241
1109,49.280
1110,49.325
1111,49.307
1112,49.081
1113,48.680
1114,49.715
1115,49.705
1116,49.195
1117,51.645
1118,54.045
1119,53.434
1120,50.247
1121,50.669
1122,50.979
1123,50.257
1124,50.016
1125,50.769
1126,53.336
1127,55.787
1128,55.433
1129,56.128
1130,54.365
1131,51.506
1132,49.408
1133,49.143
1134,49.196
1135,48.473
1136,50.553
1137,50.243
1138,50.157
1139,50.221
1140,50.457
1141,53.784
1142,57.583
1143,58.532
1144,57.046
1145,53.752
1146,51.911
1147,51.667
1148,50.909
1149,51.852
1150,53.184
1151,52.875
1152,52.980
1153,54.096
1154,54.810
1155,54.880
1156,54.633
1157,53.614
1158,52.974
1159,52.460
1160,52.859
1161,54.221
1162,58.132
1163,60.565
1164,62.443
1165,65.187
1166,65.351
1167,62.287
1168,57.330
1169,57.782
1170,58.255
1171,59.982
1172,61.813
1173,62.120
1174,63.108
1175,62.215
1176,61.167
1177,63.498
1178,65.886
1179,67.436
1180,67.840
1181,66.355
1182,64.356
1183,63.855
1184,65.909
1185,64.778
1186,65.555
1187,68.292
1188,70.919
1189,72.345
1190,72.609
1191,70.972
1192,68.187
1193,67.668
1194,67.675
1195,68.500
1196,69.986
1197,70.264
1198,69.892
1199,69.029
1200,68.884
1201,64.175
1202,61.575
1203,69.367
1204,78.285
1205,83.467
1206,87.174
1207,87.564
1208,86.456
1209,85.425
1210,84.823
1211,83.651
1212,82.544
1213,82.047
1214,81.723
1215,80.152
1216,76.872
1217,75.217
1218,75.718
1219,77.289
1220,79.815
1221,80.878
1222,80.554
1223,79.650
1224,79.899
1225,79.597
1226,80.048
1227,80.852
1228,80.756
1229,80.125
1230,79.288
1231,79.459
1232,79.232
1233,79.327
1234,80.173
1235,80.333
1236,81.141
1237,81.301
1238,81.285
1239,81.269
1240,82.077
1241,81.414
1242,81.221
1243,82.029
1244,82.034
1245,81.857
1246,82.117
1247,83.247
1248,84.007
1249,84.598
1250,83.927
1251,82.100
1252,81.678
1253,82.451
1254,82.661
1255,82.667
1256,80.476
1257,79.994
1258,80.819
1259,81.862
1260,82.119
1261,82.163
1262,82.115
1263,81.386
1264,83.234
1265,83.548
1266,83.506
1267,84.310
1268,83.707
1269,82.708
1270,82.824
1271,83.727
1272,86.990
1273,88.263
1274,88.142
1275,86.670
1276,84.971
1277,84.123
1278,84.837
1279,86.069
1280,88.591
1281,89.067
1282,89.597
1283,88.895
1284,86.945
1285,85.281
1286,85.000
1287,85.000
1288,85.950
1289,87.405
1290,88.341
1291,88.480
1292,87.815
1293,87.667
1294,87.667
1295,86.851
1296,86.840
1297,88.506
1298,89.710
1299,89.915
1300,89.907
1301,90.951
1302,91.232
1303,90.435
1304,90.128
1305,90.954
1306,91.354
1307,92.306
1308,93.589
1309,96.408
1310,97.776
1311,95.518
1312,93.453
1313,94.644
1314,97.439
1315,98.813
1316,97.173
1317,96.720
1318,97.492
1319,96.036
1320,93.226
1321,92.667
1322,92.710
1323,92.791
1324,93.038
1325,93.019
1326,92.730
1327,92.559
1328,93.359
1329,96.207
1330,97.312
1331,94.321
1332,91.164
1333,88.970
1334,88.579
1335,89.193
1336,93.384
1337,93.523
1338,91.984
1339,90.857
1340,92.011
1341,94.218
1342,94.967
1343,94.245
1344,92.126
1345,90.519
1346,89.071
1347,89.129
1348,90.008
1349,90.574
1350,91.475
1351,92.475
1352,92.667
1353,95.090
1354,96.928
1355,95.815
1356,93.207
1357,91.695
1358,91.626
1359,91.494
1360,90.903
1361,93.114
1362,94.496
1363,94.137
1364,91.851
1365,86.498
1366,81.106
1367,79.111
1368,79.882
1369,83.356
1370,89.129
1371,94.001
1372,96.631
1373,100.119
1374,100.913
1375,96.270
1376,91.805
1377,90.196
1378,90.283
1379,90.368
1380,90.376
1381,91.140
1382,90.525
1383,91.924
1384,93.078
1385,91.634
1386,90.295
1387,89.941
1388,89.960
1389,89.934
1390,89.881
1391,89.828
1392,90.311
1393,90.422
1394,91.043
1395,91.337
1396,90.742
1397,90.317
1398,91.187
1399,93.028
1400,93.195
1401,92.509
1402,92.160
1403,91.304
1404,91.477
1405,92.383
1406,93.394
1407,94.513
1408,95.484
1409,95.816
1410,95.340
1411,93.974
1412,93.263
1413,93.565
1414,95.143
1415,96.190
1416,95.527
1417,94.113
1418,92.233
1419,91.385
1420,92.387
1421,94.263
1422,95.233
1423,95.615
1424,95.129
1425,93.405
1426,92.203
1427,92.797
1428,94.387
1429,94.154
1430,93.819
1431,93.620
1432,93.280
1433,93.037
1434,92.421
1435,93.081
1436,94.164
1437,94.909
1438,94.920
1439,94.067
1440,94.760
1441,97.245
1442,98.835
1443,99.029
1444,97.148
1445,96.677
1446,96.692
1447,97.723
1448,98.790
1449,98.940
1450,98.909
1451,98.184
1452,97.206
1453,96.280
1454,96.550
1455,96.667
1456,97.509
1457,98.366
1458,99.256
1459,98.702
1460,98.104
1461,99.585
1462,100.792
1463,99.652
1464,98.771
1465,95.493
1466,92.043
1467,91.075
1468,92.477
1469,93.610
1470,94.562
1471,95.396
1472,96.606
1473,95.763
1474,95.890
1475,96.017
1476,95.599
1477,96.681
1478,98.580
1479,99.437
1480,97.200
1481,95.334
1482,93.578
1483,93.150
1484,94.100
1485,95.375
1486,95.140
1487,93.675
1488,94.881
1489,94.953
1490,95.030
1491,96.581
1492,97.599
1493,96.377
1494,95.212
1495,95.485
1496,95.925
1497,95.874
1498,94.920
1499,94.768
1500,95.333
1501,95.513
1502,96.877
1503,98.038
1504,98.057
1505,95.668
1506,94.213
1507,93.999
1508,93.214
1509,93.737
1510,95.191
1511,94.764
1512,96.644
1513,95.710
1514,94.331
1515,95.509
1516,95.298
1517,94.462
1518,93.196
1519,92.771
1520,93.611
1521,93.612
1522,94.308
1523,94.691
1524,94.138
1525,92.386
1526,91.931
1527,93.227
1528,95.643
1529,94.132
1530,95.564
1531,94.611
1532,93.315
1533,94.572
1534,93.564
1535,93.263
1536,94.020
1537,94.914
1538,96.043
1539,95.302
1540,94.663
1541,93.204
1542,93.037
1543,93.133
1544,94.125
1545,96.798
1546,99.537
1547,99.654
1548,97.468
1549,95.589
1550,93.365
1551,91.788
1552,93.328
1553,92.817
1554,92.308
1555,92.039
1556,92.018
1557,92.155
1558,91.541
1559,91.199
1560,90.784
1561,92.223
1562,94.805
1563,93.892
1564,90.636
1565,90.513
1566,91.469
1567,89.657
1568,88.067
1569,87.463
1570,89.405
1571,88.447
1572,85.153
1573,83.570
1574,83.304
1575,84.292
1576,83.093
1577,83.442
1578,83.442
1579,82.569
1580,82.809
1581,83.716
1582,83.877
1583,83.876
1584,82.258
1585,81.318
1586,81.539
1587,81.442
1588,80.827
1589,80.050
1590,80.056
1591,81.399
1592,79.945
1593,76.577
1594,73.721
1595,73.494
1596,73.310
1597,75.667
1598,78.882
1599,79.823
1600,78.724
1601,78.215
1602,78.139
1603,77.330
1604,75.521
1605,73.916
1606,73.675
1607,73.681
1608,75.363
1609,75.874
1610,75.880
1611,76.922
1612,79.187
1613,81.292
1614,81.501
1615,80.440
1616,77.076
1617,77.258
1618,79.331
1619,80.625
1620,80.559
1621,79.013
1622,77.490
1623,75.398
1624,75.620
1625,77.461
1626,78.765
1627,78.852
1628,77.804
1629,78.118
1630,78.330
1631,77.343
1632,74.959
1633,72.025
1634,69.773
1635,70.534
1636,71.173
1637,71.753
1638,73.421
1639,72.791
1640,71.666
1641,71.401
1642,71.369
1643,70.442
1644,69.550
1645,69.955
1646,69.845
1647,69.724
1648,72.353
1649,72.027
1650,71.913
1651,72.238
1652,71.555
1653,70.559
1654,69.315
1655,66.978
1656,66.124
1657,63.291
1658,60.442
1659,57.636
1660,54.834
1661,54.183
1662,54.415
1663,54.100
1664,53.491
1665,58.119
1666,63.836
1667,64.066
1668,60.280
1669,55.426
1670,52.382
1671,49.647
1672,49.945
1673,48.271
1674,46.896
1675,46.674
1676,47.452
1677,49.229
1678,50.554
1679,49.889
1680,49.704
1681,48.839
1682,48.946
1683,49.827
1684,49.922
1685,50.016
1686,50.127
1687,49.375
1688,49.608
1689,48.353
1690,47.153
1691,47.037
1692,47.898
1693,47.690
1694,47.941
1695,46.768
1696,47.077
1697,46.314
1698,45.515
1699,45.891
1700,47.823
1701,49.611
1702,51.837
1703,52.295
1704,49.079
1705,48.996
1706,50.032
1707,49.228
1708,47.807
1709,46.272
1710,45.113
1711,44.082
1712,45.824
1713,44.928
1714,45.389
1715,45.168
1716,45.247
1717,45.926
1718,44.518
1719,44.472
1720,45.955
1721,47.469
1722,50.111
1723,51.725
1724,52.618
1725,53.786
1726,54.177
1727,52.774
1728,52.009
1729,51.161
1730,49.807
1731,49.434
1732,50.487
1733,51.255
1734,50.924
1735,50.462
1736,48.314
1737,46.078
1738,44.043
1739,42.631
1740,41.937
1741,41.955
1742,42.752
1743,42.423
1744,45.057
1745,45.446
1746,45.525
1747,45.230
1748,44.364
1749,43.423
1750,41.745
1751,39.816
1752,39.299
1753,38.271
1754,37.142
1755,36.826
1756,37.721
1757,39.505
1758,40.003
1759,40.001
1760,39.919
1761,40.607
1762,42.085
1763,41.716
1764,42.103
1765,43.102
1766,44.210
1767,44.585
1768,42.602
1769,42.822
1770,43.593
1771,42.829
1772,40.245
1773,39.276
1774,38.978
1775,37.593
1776,39.360
1777,39.515
1778,39.008
1779,39.140
1780,39.965
1781,41.320
1782,42.176
1783,43.087
1784,42.570
1785,42.502
1786,43.304
1787,45.034
1788,46.625
1789,47.000
1790,44.764
1791,42.121
1792,41.618
1793,43.420
1794,45.701
1795,47.344
1796,46.544
1797,44.968
1798,43.424
1799,43.294
1800,43.835
1801,45.208
1802,46.718
1803,48.512
1804,48.841
1805,48.206
1806,47.854
1807,48.165
1808,47.534
1809,48.599
1810,49.932
1811,50.213
1812,50.085
1813,50.290
1814,50.454
1815,51.356
1816,53.773
1817,53.812
1818,53.857
1819,56.183
1820,57.723
1821,60.222
1822,62.467
1823,62.467
1824,60.789
1825,61.005
1826,62.281
1827,63.399
1828,62.927
1829,63.622
1830,63.036
1831,60.579
1832,58.233
1833,59.005
1834,61.678
1835,64.662
1836,65.968
1837,66.232
1838,66.071
1839,65.824
1840,66.431
1841,65.694
1842,64.349
1843,63.967
1844,66.149
1845,69.269
1846,71.844
1847,71.994
1848,70.370
1849,68.623
1850,66.819
1851,67.199
1852,68.723
1853,69.912
1854,71.314
1855,72.823
1856,74.286
1857,74.876
1858,75.835
1859,77.060
1860,78.081
1861,81.787
1862,85.316
1863,85.048
1864,81.727
1865,81.401
1866,82.401
1867,83.598
1868,84.468
1869,84.911
1870,84.838
1871,84.796
1872,82.993
1873,82.333
1874,82.693
1875,83.541
1876,84.036
1877,84.029
1878,84.420
1879,83.913
1880,83.622
1881,83.621
1882,83.882
1883,83.990
1884,84.243
1885,86.484
1886,90.351
1887,92.073
1888,89.926
1889,88.341
1890,87.451
1891,87.818
1892,89.708
1893,89.897
1894,89.927
1895,91.218
1896,93.033
1897,93.680
1898,93.875
1899,95.203
1900,98.034
1901,100.368
1902,100.558
1903,101.387
1904,101.596
1905,101.720
1906,103.886
1907,102.940
1908,99.498
1909,98.467
1910,98.169
1911,98.045
1912,98.871
1913,99.811
1914,100.405
1915,100.870
1916,100.871
1917,100.097
1918,99.555
1919,99.120
1920,99.727
1921,101.157
1922,102.334
1923,102.897
1924,102.535
1925,101.618
1926,100.205
1927,98.612
1928,99.105
1929,100.942
1930,101.973
1931,102.169
1932,103.264
1933,102.846
1934,101.360
1935,100.865
1936,102.474
1937,103.400
1938,103.079
1939,103.131
1940,103.469
1941,104.366
1942,105.114
1943,103.165
1944,101.071
1945,98.285
1946,96.653
1947,97.016
1948,98.915
1949,102.194
1950,103.895
1951,104.125
1952,104.867
1953,105.852
1954,105.636
1955,105.467
1956,105.590
1957,105.902
1958,106.997
1959,108.120
1960,108.577
1961,109.427
1962,110.106
1963,110.460
1964,110.436
1965,110.463
1966,110.655
1967,110.927
1968,110.271
1969,108.074
1970,107.149
1971,107.829
1972,109.719
1973,112.492
1974,115.657
1975,116.285
1976,117.809
1977,116.803
1978,116.526
1979,115.578
1980,116.333
1981,118.616
1982,119.020
1983,119.631
1984,118.783
1985,117.097
1986,115.402
1987,114.491
1988,115.766
1989,117.284
1990,119.811
1991,121.173
1992,122.504
1993,122.212
1994,120.655
1995,120.181
1996,120.916
1997,122.299
1998,124.883
1999,127.092
2000,126.991
2001,127.028
2002,126.950
2003,127.205
2004,127.144
2005,123.488
2006,117.050
2007,112.681
2008,113.119
2009,114.384
2010,116.352
2011,119.139
2012,119.066
2013,117.493
2014,117.506
2015,118.079
2016,118.516
2017,118.229
2018,120.263
2019,121.261
2020,121.812
2021,122.223
2022,119.654
2023,118.876
2024,118.614
2025,118.062
2026,117.012
2027,116.513
2028,117.609
2029,119.505
2030,122.074
2031,122.576
2032,124.164
2033,126.035
2034,126.474
2035,126.095
2036,125.548
2037,123.451
2038,120.213
2039,119.154
2040,118.444
2041,117.454
2042,114.665
2043,114.634
2044,117.463
2045,119.147
2046,120.342
2047,121.593
2048,124.351
2049,125.458
2050,126.978
2051,125.518
2052,124.044
2053,124.584
2054,122.901
2055,122.793
2056,123.638
2057,123.788
2058,124.164
2059,125.417
2060,125.761
2061,124.857
2062,124.776
2063,123.897
2064,122.819
2065,121.900
2066,121.644
2067,121.807
2068,123.414
2069,125.451
2070,127.629
2071,128.563
2072,129.845
2073,130.327
2074,131.267
2075,131.662
2076,131.624
2077,130.886
2078,130.639
2079,130.641
2080,129.657
2081,128.771
2082,128.636
2083,128.586
2084,128.630
2085,128.667
2086,129.582
2087,130.051
2088,129.379
2089,129.442
2090,130.655
2091,130.890
2092,130.248
2093,130.235
2094,130.820
2095,132.016
2096,131.994
2097,131.152
2098,131.008
2099,130.691
2100,129.850
2101,130.284
2102,131.415
2103,130.402
2104,130.198
2105,132.449
2106,133.620
2107,135.251
2108,138.616
2109,140.248
2110,137.904
2111,133.930
2112,129.612
2113,129.092
2114,129.599
2115,132.296
2116,137.076
2117,142.578
2118,146.899
2119,146.259
2120,142.263
2121,136.769
2122,128.582
2123,124.684
2124,125.694
2125,128.581
2126,132.427
2127,133.702
2128,132.812
2129,130.260
2130,128.215
2131,125.649
2132,121.368
2133,118.941
2134,122.939
2135,134.747
2136,145.259
2137,150.092
2138,151.044
2139,148.369
2140,146.368
2141,145.980
2142,145.785
2143,141.631
2144,136.499
2145,131.651
2146,130.732
2147,130.257
2148,129.968
2149,131.042
2150,132.153
2151,138.307
2152,143.947
2153,148.440
2154,151.386
2155,149.779
2156,144.850
2157,140.527
2158,137.697
2159,135.483
2160,134.987
2161,138.099
2162,141.537
2163,141.980
2164,139.773
2165,136.915
2166,134.626
2167,133.988
2168,134.353
2169,132.380
2170,129.396
2171,127.290
2172,127.029
2173,135.373
2174,146.177
2175,149.666
2176,146.359
2177,141.399
2178,135.167
2179,132.411
2180,132.801
2181,133.565
2182,133.753
2183,133.726
2184,132.551
2185,132.513
2186,133.729
2187,133.031
2188,132.942
2189,136.753
2190,140.570
2191,141.069
2192,138.692
2193,138.309
2194,138.739
2195,136.916
2196,132.321
2197,128.604
2198,125.392
2199,124.603
2200,127.279
2201,127.846
2202,129.336
2203,131.966
2204,132.590
2205,132.677
2206,133.960
2207,138.313
2208,142.456
2209,146.972
2210,149.120
2211,145.008
2212,135.917
2213,125.725
2214,119.525
2215,120.076
2216,123.000
2217,128.574
2218,134.016
2219,133.510
2220,129.335
2221,127.570
2222,127.433
2223,127.280
2224,128.325
2225,131.665
2226,135.850
2227,136.972
2228,136.257
2229,135.997
2230,136.666
2231,137.398
2232,135.714
2233,135.571
2234,135.111
2235,134.068
2236,132.079
2237,130.363
2238,129.917
2239,126.538
2240,122.951
2241,121.283
2242,121.230
2243,124.325
2244,130.346
2245,137.772
2246,143.157
2247,144.603
2248,143.150
2249,139.627
2250,135.235
2251,134.449
2252,137.073
2253,140.680
2254,141.693
2255,139.222
2256,132.969
2257,129.115
2258,128.605
2259,130.285
2260,131.690
2261,134.011
2262,137.262
2263,137.523
2264,133.344
2265,130.612
2266,131.169
2267,132.276
2268,131.062
2269,132.065
2270,135.314
2271,137.175
2272,138.644
2273,137.056
2274,131.804
2275,127.226
2276,125.291
2277,124.771
2278,124.162
2279,124.084
2280,123.682
2281,125.251
2282,127.903
2283,129.829
2284,130.935
2285,130.136
2286,128.262
2287,126.548
2288,125.507
2289,124.501
2290,123.862
2291,122.698
2292,122.279
2293,122.860
2294,122.208
2295,122.428
2296,124.283
2297,124.289
2298,123.215
2299,121.293
2300,119.848
2301,120.926
2302,122.931
2303,122.802
2304,121.780
2305,120.962
2306,120.929
2307,118.446
2308,114.692
2309,112.782
2310,113.253
2311,113.989
2312,116.125
2313,116.818
2314,117.316
2315,116.398
2316,114.173
2317,113.276
2318,113.841
2319,111.889
2320,108.386
2321,109.318
2322,109.746
2323,109.380
2324,111.313
2325,110.952
2326,108.730
2327,108.522
2328,107.005
2329,115.949
2330,126.134
2331,128.728
2332,125.145
2333,119.415
2334,115.630
2335,113.697
2336,113.353
2337,111.061
2338,105.609
2339,101.552
2340,102.201
2341,106.816
2342,112.508
2343,113.570
2344,107.489
2345,101.782
2346,99.267
2347,101.582
2348,105.635
2349,109.486
2350,112.215
2351,113.200
2352,109.784
2353,108.117
2354,109.160
2355,108.451
2356,106.207
2357,106.908
2358,109.959
2359,109.992
2360,109.675
2361,108.870
2362,107.081
2363,106.690
2364,107.703
2365,107.900
2366,106.479
2367,105.692
2368,106.252
2369,107.444
2370,107.026
2371,106.009
2372,107.303
2373,108.236
2374,107.040
2375,105.926
2376,104.397
2377,102.957
2378,102.436
2379,99.400
2380,94.360
2381,89.277
2382,85.660
2383,86.407
2384,91.999
2385,94.371
2386,95.661
2387,94.334
2388,90.024
2389,89.009
2390,90.014
2391,91.425
2392,92.071
2393,92.441
2394,90.220
2395,86.235
2396,83.923
2397,81.391
2398,79.537
2399,79.486
2400,80.791
2401,80.590
2402,80.495
2403,82.818
2404,86.272
2405,88.125
2406,88.306
2407,88.005
2408,88.023
2409,87.294
2410,84.350
2411,79.492
2412,74.013
2413,70.232
2414,69.742
2415,70.926
2416,73.682
2417,73.667
2418,71.325
2419,68.330
2420,64.834
2421,60.764
2422,56.162
2423,52.581
2424,50.427
2425,49.282
2426,49.737
2427,51.793
2428,55.287
2429,57.500
2430,56.948
2431,55.417
2432,52.199
2433,48.467
2434,46.647
2435,46.987
2436,49.212
2437,50.636
2438,50.845
2439,50.816
2440,51.354
2441,52.773
2442,54.628
2443,53.546
2444,52.030
2445,52.158
2446,50.890
2447,50.274
2448,49.749
2449,46.726
2450,42.649
2451,40.098
2452,38.726
2453,37.290
2454,35.444
2455,33.657
2456,33.267
2457,33.482
2458,31.509
2459,29.499
2460,28.127
2461,23.642
2462,16.947
2463,13.157
2464,15.779
2465,18.223
2466,20.270
2467,25.054
2468,29.164
2469,30.458
2470,28.610
2471,25.411
2472,24.366
2473,24.779
2474,26.723
2475,29.137
2476,29.216
2477,29.311
2478,31.367
2479,32.671
2480,34.563
2481,35.712
2482,35.938
2483,36.395
2484,37.237
2485,38.615
2486,40.663
2487,42.494
2488,42.742
2489,43.881
2490,45.702
2491,45.478
2492,44.582
2493,45.172
2494,46.721
2495,47.978
2496,48.978
2497,49.277
2498,49.146
2499,51.402
2500,57.170
2501,62.023
2502,64.218
2503,66.830
2504,69.584
2505,72.464
2506,75.935
2507,76.828
2508,75.573
2509,76.930
2510,80.168
2511,80.935
2512,79.174
2513,79.617
2514,79.866
2515,80.241
2516,82.047
2517,83.940
2518,84.490
2519,85.837
2520,85.892
2521,85.466
2522,87.799
2523,89.034
2524,88.792
2525,89.661
2526,90.694
2527,92.603
2528,93.097
2529,94.342
2530,97.402
2531,99.374
2532,99.206
2533,99.180
2534,100.633
2535,102.231
2536,101.987
2537,100.876
2538,99.370
2539,98.856
2540,99.013
2541,100.705
2542,104.578
2543,107.597
2544,111.090
2545,113.885
2546,114.463
2547,115.387
2548,118.263
2549,120.930
2550,120.603
2551,118.008
2552,114.003
2553,111.703
2554,114.087
2555,114.173
2556,111.361
2557,107.626
2558,105.803
2559,108.693
2560,116.413
2561,120.899
2562,118.610
2563,117.125
2564,119.400
2565,122.728
2566,126.795
2567,129.410
2568,131.993
2569,129.838
2570,123.221
2571,121.867
2572,127.931
2573,134.762
2574,136.347
2575,132.175
2576,125.294
2577,120.700
2578,118.761
2579,122.726
2580,130.912
2581,135.205
2582,136.064
2583,136.171
2584,133.698
2585,129.712
2586,129.622
2587,129.283
2588,127.115
2589,130.682
2590,135.406
2591,136.325
2592,134.783
2593,135.286
2594,139.395
2595,142.164
2596,142.974
2597,144.476
2598,145.611
2599,147.212
2600,148.728
2601,150.316
2602,151.684
2603,148.889
2604,141.374
2605,132.611
2606,125.554
2607,117.794
2608,109.782
2609,118.413
2610,142.516
2611,160.071
2612,166.515
2613,161.866
2614,146.061
2615,124.595
2616,110.829
2617,112.353
2618,128.407
2619,141.276
2620,143.291
2621,150.217
2622,164.770
2623,176.349
2624,182.646
2625,184.549
2626,181.559
2627,175.272
2628,165.402
2629,158.818
2630,159.751
2631,159.821
2632,154.098
2633,148.708
2634,144.189
2635,139.382
2636,136.991
2637,138.544
2638,146.895
2639,163.479
2640,179.860
2641,192.608
2642,203.400
2643,209.508
2644,210.411
2645,208.604
2646,204.159
2647,196.220
2648,181.713
2649,172.558
2650,170.400
2651,178.945
2652,192.162
2653,201.777
2654,204.629
2655,205.166
2656,205.988
2657,206.275
2658,207.895
2659,208.492
2660,206.764
2661,206.668
2662,209.385
2663,213.525
2664,216.621
2665,219.527
2666,220.678
2667,220.250
2668,220.018
2669,219.683
2670,219.790
2671,219.289
2672,217.109
2673,215.522
2674,216.668
2675,218.548
2676,220.418
2677,221.357
2678,222.668
2679,223.643
2680,225.331
2681,226.487
2682,226.916
2683,226.886
2684,226.339
2685,226.732
2686,227.153
2687,225.918
2688,224.671
2689,221.149
2690,217.392
2691,216.030
2692,216.972
2693,219.473
2694,223.113
2695,228.498
2696,232.712
2697,235.653
2698,237.569
2699,237.834
2700,237.669
2701,237.261
2702,236.808
2703,236.486
2704,237.002
2705,237.710
2706,239.011
2707,238.265
2708,234.603
2709,230.831
2710,227.437
2711,225.760
2712,227.064
2713,228.770
2714,230.229
2715,232.137
2716,234.084
2717,235.104
2718,235.189
2719,234.577
2720,235.516
2721,234.529
2722,230.325
2723,227.732
2724,228.101
2725,230.069
2726,234.182
2727,236.979
2728,236.269
2729,234.841
2730,233.283
2731,231.904
2732,232.107
2733,233.007
2734,234.007
2735,234.929
2736,237.217
2737,239.693
2738,241.481
2739,243.192
2740,244.483
2741,244.975
2742,243.918
2743,241.782
2744,239.186
2745,236.105
2746,235.479
2747,237.687
2748,241.307
2749,245.199
2750,246.630
2751,246.720
2752,246.792
2753,245.246
2754,241.901
2755,238.341
2756,236.354
2757,236.480
2758,237.437
2759,238.387
2760,240.474
2761,243.714
2762,247.070
2763,249.545
2764,250.495
2765,249.803
2766,248.020
2767,246.284
2768,245.003
2769,245.674
2770,246.643
2771,247.462
2772,247.854
2773,248.237
2774,248.615
2775,249.286
2776,249.334
2777,249.423
2778,249.698
2779,249.745
2780,249.838
2781,249.904
2782,249.899
2783,249.894
2784,249.820
2785,249.809
2786,249.408
2787,249.261
2788,249.336
2789,249.544
2790,249.662
2791,249.625
2792,249.836
2793,250.192
2794,250.530
2795,250.673
2796,249.881
2797,249.177
2798,248.853
2799,248.946
2800,248.929
2801,248.920
2802,248.902
2803,249.200
2804,249.518
2805,249.822
2806,250.126
2807,250.600
2808,250.881
2809,251.161
2810,251.634
2811,252.130
2812,252.333
2813,252.015
2814,251.579
2815,251.331
2816,251.366
2817,251.598
2818,251.582
2819,251.477
2820,251.800
2821,252.025
2822,251.657
2823,250.993
2824,251.103
2825,251.349
2826,251.327
2827,251.307
2828,251.471
2829,251.374
2830,251.393
2831,251.074
2832,251.446
2833,251.436
2834,250.674
2835,250.085
2836,249.611
2837,250.131
2838,251.358
2839,252.257
2840,252.606
2841,252.667
2842,252.718
2843,252.758
2844,253.186
2845,253.661
2846,253.516
2847,253.266
2848,252.703
2849,252.495
2850,252.712
2851,252.880
2852,253.093
2853,253.103
2854,252.677
2855,252.310
2856,251.696
2857,251.532
2858,251.961
2859,252.657
2860,253.090
2861,253.257
2862,253.166
2863,252.828
2864,252.589
2865,252.221
2866,251.747
2867,251.562
2868,252.144
2869,252.541
2870,252.530
2871,252.125
2872,252.289
2873,252.433
2874,252.218
2875,252.538
2876,253.115
2877,253.173
2878,253.023
2879,252.606
2880,252.530
2881,252.714
2882,252.736
2883,252.726
2884,253.080
2885,253.333
2886,253.530
2887,253.667
2888,253.667
2889,254.052
2890,254.303
2891,254.281
2892,253.889
2893,253.619
2894,253.643
2895,253.667
2896,253.447
2897,253.288
2898,253.783
2899,254.112
2900,254.162
2901,254.201
2902,254.191
2903,254.180
2904,254.169
2905,254.159
2906,254.148
2907,254.137
2908,254.127
2909,254.116
2910,254.106
2911,254.095
2912,253.840
2913,253.667
2914,253.899
2915,254.053
2916,253.652
2917,253.365
2918,253.147
2919,253.000
2920,253.390
2921,253.667
2922,253.576
2923,253.994
2924,254.333
2925,254.333
2926,254.333
2927,253.944
2928,254.056
2929,254.333
2930,254.333
2931,254.333
2932,254.333
2933,254.333
2934,254.333
2935,254.333
2936,254.040
2937,253.819
2938,253.808
2939,253.798
2940,253.469
2941,253.220
2942,253.198
2943,253.177
2944,253.841
2945,254.333
2946,254.333
2947,254.333
2948,254.333
2949,254.333
2950,254.333
2951,254.333
2952,254.333
2953,254.333
2954,254.333
2955,254.333
2956,254.333
2957,254.333
2958,254.333
2959,254.333
2960,254.526
2961,254.667
2962,254.474
2963,254.333
2964,254.333
2965,254.333
2966,254.333
2967,254.333
2968,254.475
2969,254.573
2970,254.625
2971,254.282
2972,254.000
2973,253.801
2974,253.270
2975,252.783
2976,252.607
2977,252.513
2978,252.900
2979,253.480
2980,254.051
2981,254.333
2982,253.949
2983,253.667
2984,253.667
2985,253.667
2986,253.667
2987,253.449
2988,253.501
2989,253.667
2990,253.667
2991,253.667
2992,253.284
2993,253.383
2994,253.667
2995,253.284
2996,253.765
2997,254.333
2998,254.333
2999,253.760
3000,253.907
3001,254.333
3002,254.333
3003,254.333
3004,254.333
3005,254.333
3006,254.333
3007,254.333
3008,253.761
3009,253.905
3010,254.333
3011,254.333
3012,254.333
3013,254.333
3014,254.333
3015,253.958
3016,254.056
3017,254.333
3018,254.333
3019,254.333
3020,253.988
3021,253.739
3022,253.750
3023,253.761
3024,254.092
3025,254.333
3026,254.333
3027,254.333
3028,254.333
3029,254.333
3030,254.333
3031,254.333
3032,254.333
3033,254.333
3034,254.333
3035,254.333
3036,254.201
3037,254.091
3038,253.845
3039,253.817
3040,253.785
3041,253.667
3042,253.456
3043,253.306
3044,253.317
3045,253.334
3046,253.328
3047,253.318
3048,253.307
3049,253.297
3050,253.717
3051,254.214
3052,254.106
3053,253.921
3054,254.150
3055,254.202
3056,253.734
3057,253.575
3058,253.667
3059,253.667
3060,253.667
3061,253.667
3062,254.043
3063,254.208
3064,254.244
3065,254.333
3066,254.333
3067,254.333
3068,254.333
3069,254.333
3070,254.333
3071,254.333
3072,254.333
3073,254.333
3074,254.333
3075,254.333
3076,254.333
3077,253.771
3078,253.528
3079,253.667
3080,254.041
3081,254.333
3082,253.989
3083,253.731
3084,253.742
3085,254.078
3086,254.333
3087,254.333
3088,253.959
3089,254.041
3090,254.333
3091,254.333
3092,253.960
3093,253.667
3094,254.040
3095,254.333
3096,254.333
3097,254.333
3098,254.333
3099,254.333
3100,254.333
3101,254.103
3102,253.933
3103,253.789
3104,254.039
3105,254.333
3106,254.333
3107,254.333
3108,254.149
3109,253.811
3110,253.667
3111,253.667
3112,253.503
3113,253.383
3114,253.546
3115,253.813
3116,253.778
3117,253.667
3118,254.038
3119,254.333
3120,254.333
3121,254.333
3122,254.333
3123,254.333
3124,254.194
3125,253.673
3126,253.333
3127,253.776
3128,254.250
3129,254.333
3130,253.963
3131,253.667
3132,254.036
3133,254.333
3134,253.964
3135,253.667
3136,254.373
3137,254.956
3138,254.972
3139,254.988
3140,254.998
3141,254.987
3142,254.976
3143,254.965
3144,254.955
3145,254.944
3146,254.933
3147,254.923
3148,254.912
3149,254.902
3150,254.891
3151,254.880
3152,254.870
3153,254.859
3154,254.849
3155,254.838
3156,254.827
3157,254.817
3158,254.646
3159,254.107
3160,254.336
3161,254.774
3162,254.764
3163,254.753
3164,254.742
3165,254.510
3166,254.379
3167,254.421
3168,254.363
3169,254.333
3170,254.333
3171,254.333
3172,254.333
3173,254.139
3174,253.970
3175,253.959
3176,254.159
3177,254.333
3178,254.039
3179,253.792
3180,254.151
3181,254.448
3182,254.442
3183,254.072
3184,254.130
3185,254.426
3186,254.421
3187,254.416
3188,254.410
3189,254.405
3190,254.400
3191,254.395
3192,254.389
3193,254.384
3194,254.379
3195,254.373
3196,254.368
3197,254.363
3198,253.994
3199,253.685
3200,254.036
3201,254.333
3202,254.333
3203,254.333
3204,254.333
3205,253.789
3206,253.333
3207,253.333
3208,253.877
3209,254.333
3210,254.333
3211,254.333
3212,254.333
3213,254.333
3214,253.890
3215,253.424
3216,253.333
3217,253.751
3218,254.221
3219,254.333
3220,254.333
3221,254.333
3222,254.333
3223,253.792
3224,253.875
3225,254.333
3226,254.333
3227,254.333
3228,254.333
3229,254.020
3230,253.771
3231,253.787
3232,254.089
3233,254.333
3234,254.333
3235,254.333
3236,254.333
3237,254.333
3238,253.794
3239,253.333
3240,253.873
3241,254.333
3242,254.333
3243,254.333
3244,254.333
3245,254.333
3246,254.333
3247,254.333
3248,254.253
3249,254.439
3250,254.667
3251,254.667
3252,254.487
3253,254.333
3254,254.333
3255,254.034
3256,254.017
3257,254.292
3258,254.333
3259,254.333
3260,254.512
3261,254.667
3262,254.667
3263,254.667
3264,254.488
3265,254.333
3266,254.333
3267,254.333
3268,254.333
3269,254.333
3270,254.333
3271,254.301
3272,254.300
3273,254.333
3274,254.333
3275,254.333
3276,254.481
3277,254.605
3278,254.599
3279,254.594
3280,254.452
3281,254.333
3282,254.333
3283,254.333
3284,254.333
3285,254.333
3286,254.214
3287,254.115
3288,254.120
3289,254.126
3290,254.239
3291,254.333
3292,254.333
3293,254.333
3294,254.333
3295,254.333
3296,254.510
3297,254.667
3298,254.490
3299,254.333
3300,254.333
3301,254.333
3302,253.980
3303,253.667
3304,253.667
3305,253.667
3306,253.791
3307,253.891
3308,253.880
3309,253.870
3310,253.859
3311,253.848
3312,254.100
3313,254.333
3314,254.060
3315,253.806
3316,253.795
3317,253.785
3318,253.774
3319,253.763
3320,253.753
3321,253.742
3322,253.732
3323,253.721
3324,253.710
3325,253.700
3326,253.677
3327,253.667
3328,254.018
3329,254.333
3330,253.982
3331,253.667
3332,253.667
3333,253.667
3334,253.667
3335,253.667
3336,253.667
3337,253.667
3338,253.612
3339,253.612
3340,253.667
3341,253.667
3342,253.667
3343,253.317
3344,253.350
3345,253.667
3346,253.917
3347,254.238
3348,254.333
3349,254.333
3350,253.984
3351,253.667
3352,253.667
3353,253.667
3354,253.462
3355,253.136
3356,253.194
3357,253.520
3358,253.667
3359,253.667
3360,253.495
3361,253.167
3362,253.000
3363,253.348
3364,253.667
3365,253.667
3366,253.529
3367,253.198
3368,253.347
3369,253.667
3370,253.493
3371,253.333
3372,253.333
3373,253.333
3374,253.333
3375,253.333
3376,253.160
3377,253.000
3378,253.000
3379,253.000
3380,253.000
3381,253.000
3382,253.000
3383,253.000
3384,253.308
3385,253.604
3386,253.323
3387,253.366
3388,253.667
3389,253.667
3390,253.662
3391,253.321
3392,253.339
3393,253.656
3394,253.650
3395,253.645
3396,253.640
3397,253.634
3398,253.629
3399,253.624
3400,253.618
3401,253.613
3402,253.608
3403,253.602
3404,253.597
3405,253.592
3406,253.587
3407,253.581
3408,253.201
3409,253.103
3410,253.333
3411,253.333
3412,253.447
3413,253.549
3414,253.544
3415,253.539
3416,253.396
3417,253.394
3418,253.425
3419,253.333
3420,253.333
3421,253.333
3422,253.333
3423,253.158
3424,252.982
3425,252.629
3426,252.390
3427,252.475
3428,252.672
3429,253.003
3430,253.103
3431,252.874
3432,253.008
3433,253.333
3434,253.099
3435,253.105
3436,253.211
3437,253.089
3438,252.956
3439,252.743
3440,251.794
3441,251.208
3442,251.798
3443,252.454
3444,252.887
3445,253.000
3446,252.702
3447,252.065
3448,252.067
3449,252.383
3450,252.353
3451,252.658
3452,253.161
3453,253.333
3454,253.333
3455,252.994
3456,252.842
3457,253.017
3458,253.023
3459,252.718
3460,252.434
3461,252.749
3462,253.044
3463,253.049
3464,253.196
3465,253.333
3466,253.333
3467,253.333
3468,253.333
3469,253.333
3470,253.333
3471,253.333
3472,253.333
3473,253.333
3474,253.333
3475,253.333
3476,253.333
3477,253.333
3478,253.333
3479,253.333
3480,253.333
3481,253.333
3482,252.997
3483,252.667
3484,253.003
3485,253.333
3486,253.333
3487,252.997
3488,253.339
3489,254.000
3490,254.000
3491,254.000
3492,254.000
3493,254.105
3494,254.106
3495,254.110
3496,254.279
3497,254.333
3498,253.998
3499,254.002
3500,254.333
3501,254.333
3502,254.333
3503,254.333
3504,254.166
3505,253.635
3506,253.640
3507,254.142
3508,253.954
3509,253.480
3510,253.333
3511,252.666
3512,251.690
3513,250.879
3514,249.372
3515,247.031
3516,245.181
3517,245.152
3518,246.611
3519,247.927
3520,248.916
3521,249.523
3522,249.246
3523,249.149
3524,249.174
3525,249.063
3526,248.517
3527,247.723
3528,247.785
3529,247.337
3530,246.191
3531,245.259
3532,244.085
3533,243.788
3534,244.248
3535,243.709
3536,242.205
3537,241.516
3538,242.259
3539,243.849
3540,245.911
3541,247.896
3542,248.875
3543,248.405
3544,247.150
3545,245.478
3546,244.150
3547,243.408
3548,242.749
3549,243.660
3550,245.812
3551,247.008
3552,247.238
3553,246.872
3554,246.179
3555,245.179
3556,244.043
3557,242.922
3558,241.844
3559,240.676
3560,238.606
3561,236.914
3562,236.336
3563,235.928
3564,235.406
3565,234.710
3566,234.770
3567,235.524
3568,235.804
3569,235.638
3570,235.342
3571,234.584
3572,233.030
3573,231.935
3574,232.108
3575,232.532
3576,231.899
3577,232.002
3578,232.014
3579,230.513
3580,231.315
3581,231.972
3582,229.818
3583,229.439
3584,229.296
3585,229.083
3586,229.533
3587,229.116
3588,230.125
3589,230.495
3590,231.038
3591,232.632
3592,233.656
3593,234.423
3594,234.990
3595,235.327
3596,235.339
3597,235.195
3598,235.498
3599,236.082
3600,236.831
3601,237.306
3602,237.397
3603,237.450
3604,237.057
3605,237.012
3606,237.689
3607,237.277
3608,236.786
3609,237.581
3610,238.668
3611,235.836
3612,226.800
3613,215.800
3614,208.124
3615,202.670
3616,197.185
3617,193.309
3618,192.936
3619,194.476
3620,193.995
3621,195.432
3622,198.782
3623,200.971
3624,201.752
3625,200.555
3626,200.593
3627,201.100
3628,199.735
3629,196.477
3630,192.836
3631,189.869
3632,187.546
3633,186.928
3634,187.657
3635,190.323
3636,193.298
3637,194.534
3638,194.861
3639,195.016
3640,195.617
3641,196.626
3642,196.195
3643,195.679
3644,195.729
3645,196.146
3646,195.573
3647,194.589
3648,194.588
3649,193.686
3650,193.484
3651,192.436
3652,188.033
3653,184.041
3654,185.044
3655,188.081
3656,190.490
3657,191.696
3658,191.684
3659,190.161
3660,185.529
3661,178.490
3662,169.551
3663,161.407
3664,157.712
3665,158.351
3666,161.054
3667,160.323
3668,151.690
3669,140.494
3670,133.232
3671,129.347
3672,127.612
3673,130.152
3674,140.060
3675,150.649
3676,153.719
3677,155.462
3678,159.533
3679,161.035
3680,155.863
3681,144.796
3682,132.203
3683,119.758
3684,111.951
3685,107.388
3686,100.093
3687,98.759
3688,112.236
3689,131.683
3690,146.627
3691,154.803
3692,153.457
3693,145.692
3694,138.965
3695,135.676
3696,136.494
3697,137.488
3698,134.017
3699,127.765
3700,120.338
3701,114.305
3702,108.061
3703,104.048
3704,105.952
3705,109.925
3706,113.210
3707,115.621
3708,115.414
3709,116.106
3710,119.769
3711,122.092
3712,120.896
3713,117.081
3714,111.374
3715,107.182
3716,105.124
3717,105.441
3718,108.048
3719,110.340
3720,112.976
3721,114.197
3722,111.825
3723,108.138
3724,105.063
3725,104.496
3726,104.156
3727,101.979
3728,100.113
3729,99.657
3730,100.489
3731,100.806
3732,99.653
3733,98.367
3734,98.735
3735,100.976
3736,102.885
3737,103.450
3738,101.806
3739,97.514
3740,92.389
3741,88.784
3742,88.142
3743,88.154
3744,87.291
3745,86.775
3746,86.174
3747,84.899
3748,82.738
3749,80.324
3750,77.980
3751,76.180
3752,75.777
3753,74.558
3754,71.860
3755,70.080
3756,70.113
3757,71.015
3758,70.878
3759,70.490
3760,69.333
3761,68.056
3762,68.997
3763,70.837
3764,70.732
3765,66.974
3766,61.405
3767,56.706
3768,55.728
3769,56.768
3770,56.674
3771,56.649
3772,56.028
3773,55.073
3774,54.103
3775,53.141
3776,52.946
3777,53.084
3778,52.845
3779,53.395
3780,55.185
3781,57.015
3782,58.178
3783,58.294
3784,57.574
3785,57.115
3786,56.610
3787,56.795
3788,57.949
3789,59.276
3790,60.253
3791,60.842
3792,60.315
3793,59.323
3794,59.616
3795,60.846
3796,61.874
3797,62.916
3798,64.353
3799,63.975
3800,62.244
3801,61.359
3802,61.552
3803,61.610
3804,61.936
3805,62.259
3806,62.607
3807,63.346
3808,64.436
3809,65.288
3810,65.784
3811,66.801
3812,68.867
3813,70.518
3814,71.048
3815,71.232
3816,72.290
3817,74.455
3818,76.258
3819,77.510
3820,78.562
3821,79.274
3822,80.929
3823,83.097
3824,85.273
3825,86.211
3826,85.243
3827,85.178
3828,86.921
3829,88.802
3830,89.033
3831,88.211
3832,87.526
3833,87.355
3834,87.637
3835,88.000
3836,88.909
3837,91.723
3838,94.723
3839,95.864
3840,95.614
3841,93.972
3842,91.139
3843,89.369
3844,90.242
3845,93.504
3846,98.417
3847,103.611
3848,104.002
3849,100.855
3850,99.169
3851,99.103
3852,99.837
3853,100.176
3854,100.808
3855,101.609
3856,103.499
3857,104.971
3858,103.987
3859,103.249
3860,103.602
3861,104.333
3862,104.333
3863,103.432
3864,102.724
3865,102.766
3866,102.637
3867,103.352
3868,104.591
3869,107.123
3870,109.457
3871,109.565
3872,108.654
3873,107.350
3874,105.147
3875,104.142
3876,103.907
3877,104.407
3878,105.368
3879,106.397
3880,107.575
3881,109.007
3882,110.073
3883,111.124
3884,113.157
3885,114.351
3886,112.044
3887,109.389
3888,108.928
3889,109.240
3890,109.521
3891,109.236
3892,109.413
3893,111.222
3894,114.161
3895,117.774
3896,118.690
3897,117.647
3898,117.025
3899,115.512
3900,112.778
3901,109.522
3902,108.928
3903,112.042
3904,115.021
3905,117.056
3906,120.520
3907,122.667
3908,120.218
3909,115.723
3910,113.023
3911,111.462
3912,111.656
3913,112.581
3914,113.055
3915,113.918
3916,115.240
3917,117.940
3918,119.816
3919,118.590
3920,114.685
3921,110.816
3922,110.110
3923,112.576
3924,117.099
3925,121.484
3926,123.214
3927,122.030
3928,119.367
3929,116.859
3930,117.131
3931,118.932
3932,118.402
3933,117.740
3934,120.062
3935,121.594
3936,119.379
3937,117.800
3938,118.653
3939,121.537
3940,125.337
3941,127.576
3942,127.909
3943,127.053
3944,125.589
3945,123.544
3946,121.506
3947,120.135
3948,119.491
3949,119.229
3950,119.292
3951,119.667
3952,118.857
3953,118.087
3954,119.891
3955,122.160
3956,122.524
3957,121.886
3958,121.772
3959,122.109
3960,123.194
3961,124.966
3962,124.164
3963,123.283
3964,125.226
3965,128.757
3966,131.209
3967,133.553
3968,134.544
3969,133.140
3970,131.773
3971,130.794
3972,129.893
3973,131.010
3974,134.777
3975,137.885
3976,138.833
3977,139.111
3978,139.031
3979,138.042
3980,134.805
3981,130.473
3982,128.592
3983,130.345
3984,134.213
3985,137.933
3986,140.473
3987,140.634
3988,137.546
3989,133.550
3990,131.086
3991,131.182
3992,131.311
3993,130.532
3994,130.911
3995,132.431
3996,134.853
3997,137.213
3998,138.127
3999,136.880
4000,134.016
4001,130.913
4002,130.281
4003,131.211
4004,129.867
4005,129.964
4006,130.486
4007,128.294
4008,127.390
4009,128.529
4010,129.656
4011,131.615
4012,133.041
4013,134.601
4014,135.854
4015,134.284
4016,130.479
4017,128.820
4018,129.196
4019,129.140
4020,129.346
4021,129.685
4022,130.167
4023,131.089
4024,132.094
4025,133.655
4026,137.986
4027,140.294
4028,137.047
4029,131.191
4030,125.464
4031,121.965
4032,123.522
4033,126.354
4034,127.350
4035,127.993
4036,128.726
4037,131.513
4038,134.064
4039,135.321
4040,135.830
4041,134.152
4042,129.672
4043,125.374
4044,124.888
4045,125.579
4046,124.542
4047,124.761
4048,127.097
4049,129.297
4050,131.206
4051,132.945
4052,132.334
4053,130.810
4054,130.976
4055,132.986
4056,133.707
4057,132.980
4058,132.941
4059,133.684
4060,136.436
4061,140.516
4062,144.396
4063,147.137
4064,146.980
4065,144.967
4066,144.683
4067,146.410
4068,151.000
4069,156.117
4070,155.263
4071,148.646
4072,140.050
4073,132.721
4074,131.353
4075,135.290
4076,141.310
4077,145.281
4078,145.012
4079,140.473
4080,133.159
4081,126.181
4082,124.550
4083,126.545
4084,130.305
4085,134.281
4086,135.133
4087,134.646
4088,136.047
4089,137.625
4090,138.033
4091,138.460
4092,141.451
4093,143.287
4094,139.043
4095,131.909
4096,127.390
4097,125.350
4098,124.828
4099,125.307
4100,124.256
4101,124.874
4102,129.425
4103,132.745
4104,132.441
4105,130.053
4106,128.907
4107,130.312
4108,130.692
4109,131.428
4110,132.298
4111,132.809
4112,132.392
4113,129.421
4114,126.422
4115,124.667
4116,126.099
4117,129.235
4118,130.848
4119,130.054
4120,127.845
4121,125.276
4122,123.893
4123,125.047
4124,126.129
4125,125.373
4126,124.846
4127,125.376
4128,124.705
4129,123.942
4130,124.841
4131,125.773
4132,125.926
4133,124.323
4134,122.126
4135,123.357
4136,128.036
4137,132.427
4138,132.917
4139,131.084
4140,127.453
4141,122.215
4142,120.940
4143,121.222
4144,117.248
4145,114.544
4146,115.637
4147,119.156
4148,123.185
4149,125.449
4150,125.499
4151,125.653
4152,126.003
4153,125.859
4154,126.246
4155,127.128
4156,126.393
4157,124.043
4158,118.643
4159,113.953
4160,114.950
4161,117.758
4162,117.932
4163,116.768
4164,114.702
4165,112.792
4166,111.897
4167,111.919
4168,113.864
4169,116.333
4170,116.419
4171,115.985
4172,114.333
4173,113.423
4174,115.505
4175,118.729
4176,119.433
4177,118.718
4178,116.559
4179,113.156
4180,111.367
4181,111.467
4182,117.383
4183,123.464
4184,123.007
4185,118.328
4186,110.456
4187,103.226
4188,100.031
4189,100.878
4190,104.409
4191,107.158
4192,107.444
4193,106.813
4194,108.700
4195,111.882
4196,113.924
4197,114.032
4198,112.987
4199,110.295
4200,109.001
4201,110.354
4202,110.713
4203,111.764
4204,113.626
4205,113.869
4206,110.629
4207,105.651
4208,103.640
4209,104.989
4210,105.352
4211,105.016
4212,102.864
4213,101.266
4214,101.201
4215,102.801
4216,102.687
4217,100.751
4218,101.294
4219,102.434
4220,103.530
4221,104.114
4222,103.699
4223,102.683
4224,102.466
4225,101.453
4226,99.448
4227,99.597
4228,97.608
4229,96.204
4230,97.936
4231,99.687
4232,100.695
4233,100.881
4234,99.946
4235,99.780
4236,100.084
4237,99.571
4238,98.112
4239,96.525
4240,95.786
4241,95.624
4242,95.304
4243,95.131
4244,94.140
4245,91.847
4246,90.270
4247,90.770
4248,92.108
4249,93.464
4250,93.667
4251,92.876
4252,91.553
4253,91.107
4254,90.504
4255,89.844
4256,90.013
4257,91.290
4258,91.571
4259,91.842
4260,91.390
4261,90.395
4262,90.258
4263,90.565
4264,89.811
4265,89.226
4266,88.837
4267,87.843
4268,88.042
4269,90.089
4270,91.989
4271,92.909
4272,90.662
4273,86.514
4274,85.466
4275,87.022
4276,89.244
4277,92.949
4278,99.189
4279,101.480
4280,98.231
4281,91.381
4282,84.597
4283,80.924
4284,79.776
4285,79.371
4286,75.780
4287,70.393
4288,69.658
4289,72.242
4290,75.275
4291,78.074
4292,78.597
4293,77.827
4294,77.451
4295,77.883
4296,78.191
4297,79.066
4298,80.897
4299,82.004
4300,81.247
4301,77.183
4302,71.142
4303,65.771
4304,64.495
4305,67.541
4306,69.745
4307,71.051
4308,71.966
4309,73.501
4310,74.820
4311,75.319
4312,74.304
4313,72.333
4314,71.368
4315,70.729
4316,70.742
4317,70.700
4318,69.718
4319,68.061
4320,66.334
4321,64.337
4322,64.610
4323,65.759
4324,65.123
4325,63.263
4326,62.311
4327,60.852
4328,59.337
4329,57.498
4330,53.555
4331,50.066
4332,51.668
4333,57.258
4334,61.771
4335,64.418
4336,63.881
4337,61.472
4338,59.686
4339,56.918
4340,54.463
4341,53.320
4342,52.141
4343,51.486
4344,51.015
4345,50.453
4346,50.860
4347,50.566
4348,50.346
4349,51.506
4350,53.871
4351,57.015
4352,58.173
4353,57.060
4354,57.196
4355,54.590
4356,50.073
4357,46.295
4358,44.198
4359,44.547
4360,45.405
4361,45.494
4362,44.736
4363,44.372
4364,44.214
4365,43.975
4366,43.891
4367,43.720
4368,43.011
4369,41.875
4370,42.160
4371,42.739
4372,42.322
4373,42.936
4374,42.955
4375,42.711
4376,42.570
4377,41.716
4378,42.710
4379,43.683
4380,45.067
4381,46.754
4382,48.672
4383,50.024
4384,50.138
4385,49.725
4386,50.223
4387,50.486
4388,49.172
4389,47.960
4390,47.944
4391,48.028
4392,48.183
4393,48.375
4394,48.725
4395,49.330
4396,48.577
4397,48.060
4398,50.140
4399,51.559
4400,50.590
4401,49.371
4402,50.979
4403,52.687
4404,51.847
4405,49.499
4406,47.619
4407,46.502
4408,45.867
4409,46.609
4410,46.774
4411,47.906
4412,49.358
4413,50.144
4414,49.970
4415,48.548
4416,48.083
4417,48.802
4418,48.167
4419,48.486
4420,50.604
4421,53.626
4422,56.009
4423,57.327
4424,57.321
4425,57.739
4426,59.717
4427,61.952
4428,62.892
4429,62.586
4430,62.226
4431,62.477
4432,62.956
4433,62.902
4434,63.012
4435,63.000
4436,62.938
4437,62.553
4438,61.955
4439,61.763
4440,63.224
4441,65.288
4442,64.764
4443,64.479
4444,64.367
4445,64.456
4446,65.917
4447,68.055
4448,68.483
4449,67.152
4450,62.140
4451,54.993
4452,49.209
4453,45.200
4454,41.306
4455,42.441
4456,49.024
4457,59.272
4458,68.598
4459,75.004
4460,71.806
4461,66.086
4462,64.232
4463,64.038
4464,64.723
4465,67.735
4466,70.806
4467,73.571
4468,73.856
4469,74.071
4470,72.901
4471,72.211
4472,74.139
4473,75.694
4474,79.237
4475,83.008
4476,83.222
4477,81.373
4478,80.432
4479,79.698
4480,78.251
4481,77.661
4482,78.782
4483,79.156
4484,78.230
4485,77.233
4486,76.446
4487,76.444
4488,77.988
4489,80.032
4490,79.479
4491,77.547
4492,76.367
4493,75.862
4494,75.050
4495,75.655
4496,76.066
4497,75.484
4498,77.621
4499,79.269
4500,77.101
4501,75.223
4502,74.438
4503,72.541
4504,72.846
4505,74.487
4506,75.780
4507,76.591
4508,78.245
4509,80.134
4510,80.820
4511,81.693
4512,83.868
4513,85.582
4514,85.830
4515,86.451
4516,86.535
4517,86.515
4518,87.347
4519,87.726
4520,87.516
4521,88.624
4522,90.039
4523,88.897
4524,87.853
4525,88.114
4526,87.881
4527,88.381
4528,90.788
4529,93.877
4530,95.574
4531,96.326
4532,94.144
4533,90.625
4534,85.556
4535,79.941
4536,78.842
4537,80.001
4538,80.534
4539,81.910
4540,83.704
4541,84.896
4542,85.354
4543,84.883
4544,83.490
4545,83.146
4546,82.962
4547,82.522
4548,82.546
4549,82.582
4550,83.348
4551,85.321
4552,86.052
4553,85.264
4554,86.605
4555,88.113
4556,88.637
4557,88.762
4558,91.158
4559,94.238
4560,96.036
4561,95.468
4562,92.650
4563,88.616
4564,86.240
4565,85.643
4566,85.472
4567,86.406
4568,87.525
4569,89.697
4570,91.387
4571,92.375
4572,91.400
4573,92.144
4574,94.974
4575,98.471
4576,98.580
4577,95.914
4578,94.847
4579,95.088
4580,95.056
4581,94.602
4582,95.186
4583,94.288
4584,90.476
4585,86.273
4586,84.643
4587,84.317
4588,85.119
4589,86.724
4590,89.201
4591,90.060
4592,89.239
4593,89.844
4594,90.272
4595,88.044
4596,87.862
4597,87.405
4598,89.582
4599,94.105
4600,95.154
4601,93.574
4602,90.433
4603,87.533
4604,85.931
4605,85.557
4606,85.721
4607,85.594
4608,85.062
4609,84.882
4610,87.420
4611,91.761
4612,95.387
4613,95.767
4614,93.362
4615,91.660
4616,90.838
4617,90.144
4618,88.076
4619,84.388
4620,82.028
4621,81.514
4622,81.795
4623,83.652
4624,86.102
4625,88.102
4626,89.305
4627,90.321
4628,91.485
4629,93.629
4630,95.165
4631,95.327
4632,93.249
4633,89.830
4634,87.791
4635,86.182
4636,86.020
4637,86.856
4638,87.296
4639,87.816
4640,87.997
4641,88.137
4642,88.098
4643,89.353
4644,88.669
4645,88.730
4646,93.374
4647,97.332
4648,96.205
4649,92.332
4650,88.012
4651,86.609
4652,88.833
4653,92.425
4654,95.916
4655,97.622
4656,95.764
4657,91.420
4658,89.700
4659,90.005
4660,89.677
4661,87.805
4662,86.166
4663,85.156
4664,85.030
4665,86.046
4666,82.849
4667,78.847
4668,80.547
4669,86.600
4670,89.843
4671,90.486
4672,91.830
4673,95.170
4674,96.784
4675,97.018
4676,94.417
4677,89.273
4678,87.167
4679,88.404
4680,88.018
4681,87.901
4682,88.850
4683,90.422
4684,92.532
4685,93.315
4686,93.293
4687,93.600
4688,94.497
4689,95.869
4690,95.811
4691,95.420
4692,94.077
4693,92.215
4694,90.495
4695,89.186
4696,88.779
4697,89.136
4698,89.355
4699,89.287
4700,88.391
4701,88.000
4702,87.906
4703,87.697
4704,87.684
4705,88.754
4706,90.364
4707,92.347
4708,91.389
4709,89.041
4710,89.195
4711,91.256
4712,91.674
4713,90.181
4714,88.327
4715,89.636
4716,91.392
4717,90.910
4718,90.076
4719,89.252
4720,90.322
4721,92.461
4722,91.091
4723,89.532
4724,88.752
4725,87.770
4726,85.932
4727,83.969
4728,82.495
4729,82.253
4730,82.338
4731,81.427
4732,80.507
4733,81.199
4734,79.450
4735,77.318
4736,79.625
4737,83.815
4738,86.036
4739,85.419
4740,82.451
4741,79.029
4742,75.225
4743,73.109
4744,74.562
4745,79.104
4746,83.219
4747,83.550
4748,83.289
4749,83.999
4750,83.847
4751,85.553
4752,88.419
4753,90.598
4754,94.081
4755,98.210
4756,97.957
4757,94.257
4758,91.627
4759,89.314
4760,86.229
4761,82.905
4762,81.056
4763,79.541
4764,79.591
4765,79.765
4766,79.044
4767,80.394
4768,82.092
4769,81.383
4770,83.002
4771,83.659
4772,83.665
4773,83.994
4774,84.994
4775,85.331
4776,85.007
4777,85.608
4778,85.647
4779,86.003
4780,85.198
4781,82.668
4782,79.566
4783,78.216
4784,79.402
4785,81.766
4786,83.025
4787,85.321
4788,87.145
4789,87.779
4790,86.063
4791,83.872
4792,83.352
4793,83.243
4794,81.248
4795,78.834
4796,77.582
4797,77.451
4798,77.891
4799,79.137
4800,79.834
4801,79.417
4802,78.035
4803,76.973
4804,76.321
4805,76.362
4806,75.533
4807,74.697
4808,74.461
4809,74.930
4810,73.542
4811,73.176
4812,72.801
4813,72.805
4814,74.517
4815,76.095
4816,75.166
4817,72.708
4818,71.589
4819,70.915
4820,70.235
4821,70.622
4822,72.674
4823,74.712
4824,73.801
4825,69.295
4826,66.651
4827,65.589
4828,65.379
4829,65.147
4830,66.282
4831,66.503
4832,65.021
4833,63.592
4834,61.134
4835,60.352
4836,60.828
4837,62.586
4838,63.614
4839,63.170
4840,64.333
4841,65.449
4842,65.508
4843,65.542
4844,66.105
4845,67.928
4846,69.547
4847,70.684
4848,70.077
4849,67.532
4850,68.130
4851,67.702
4852,66.361
4853,65.567
4854,64.274
4855,64.133
4856,64.611
4857,64.920
4858,64.613
4859,65.248
4860,64.668
4861,63.449
4862,63.573
4863,64.234
4864,63.923
4865,63.986
4866,62.470
4867,62.104
4868,62.348
4869,62.146
4870,61.667
4871,61.667
4872,62.461
4873,63.777
4874,62.667
4875,62.360
4876,61.667
4877,61.871
4878,62.864
4879,64.062
4880,62.651
4881,59.090
4882,58.106
4883,57.268
4884,57.218
4885,57.679
4886,57.048
4887,56.765
4888,56.352
4889,57.681
4890,60.150
4891,61.798
4892,63.003
4893,62.436
4894,61.343
4895,60.909
4896,60.711
4897,58.368
4898,57.364
4899,56.406
4900,56.039
4901,57.003
4902,58.253
4903,59.865
4904,60.504
4905,61.160
4906,62.475
4907,61.723
4908,59.877
4909,57.761
4910,55.063
4911,53.667
4912,53.835
4913,55.143
4914,57.454
4915,57.609
4916,56.746
4917,55.853
4918,54.298
4919,53.445
4920,53.526
4921,53.623
4922,53.983
4923,55.698
4924,56.232
4925,55.981
4926,56.968
4927,58.198
4928,56.928
4929,53.483
4930,50.200
4931,50.051
4932,51.298
4933,53.659
4934,53.928
4935,52.315
4936,52.528
4937,53.803
4938,54.285
4939,53.899
4940,54.701
4941,56.068
4942,55.734
4943,54.966
4944,54.986
4945,55.251
4946,55.235
4947,55.451
4948,56.038
4949,56.146
4950,55.967
4951,54.989
4952,53.826
4953,53.741
4954,53.569
4955,54.935
4956,55.386
4957,54.347
4958,52.716
4959,52.350
4960,52.731
4961,52.005
4962,51.837
4963,51.653
4964,52.333
4965,52.079
4966,51.206
4967,49.973
4968,49.752
4969,52.920
4970,53.997
4971,53.805
4972,55.822
4973,56.707
4974,56.586
4975,57.641
4976,56.244
4977,54.415
4978,52.416
4979,50.416
4980,49.000
4981,49.292
4982,50.292
4983,51.103
4984,51.456
4985,51.779
4986,52.068
4987,52.206
4988,52.698
4989,53.276
4990,53.957
4991,54.667
4992,54.472
4993,53.729
4994,52.983
4995,52.910
4996,52.589
4997,52.303
4998,53.868
4999,54.887
5000,54.625
5001,54.352
5002,53.277
5003,52.616
5004,53.997
5005,56.196
5006,57.440
5007,57.260
5008,56.176
5009,53.971
5010,51.487
5011,49.683
5012,48.603
5013,49.694
5014,50.669
5015,50.398
5016,52.871
5017,55.746
5018,56.249
5019,57.359
5020,57.517
5021,55.551
5022,54.061
5023,54.290
5024,55.278
5025,55.636
5026,54.374
5027,52.699
5028,52.154
5029,52.394
5030,51.866
5031,53.399
5032,57.166
5033,59.475
5034,58.257
5035,56.357
5036,55.710
5037,56.540
5038,57.832
5039,58.056
5040,57.566
5041,57.088
5042,55.384
5043,55.345
5044,55.657
5045,55.562
5046,55.003
5047,53.723
5048,52.452
5049,52.031
5050,50.342
5051,49.443
5052,48.582
5053,48.389
5054,49.827
5055,52.114
5056,53.673
5057,55.648
5058,55.277
5059,55.109
5060,54.546
5061,54.306
5062,56.370
5063,59.242
5064,60.826
5065,60.993
5066,61.009
5067,60.745
5068,59.296
5069,57.313
5070,57.145
5071,57.035
5072,55.671
5073,52.984
5074,53.091
5075,53.898
5076,54.275
5077,55.452
5078,57.181
5079,57.745
5080,56.438
5081,57.437
5082,57.845
5083,61.102
5084,61.739
5085,58.861
5086,57.604
5087,60.548
5088,62.071
5089,62.319
5090,62.319
5091,62.327
5092,61.868
5093,60.718
5094,60.700
5095,60.804
5096,60.736
5097,60.773
5098,61.155
5099,60.209
5100,60.708
5101,62.796
5102,63.243
5103,62.039
5104,61.555
5105,62.016
5106,61.565
5107,61.781
5108,61.314
5109,60.399
5110,62.005
5111,64.417
5112,64.689
5113,63.045
5114,63.811
5115,67.302
5116,67.201
5117,63.380
5118,55.946
5119,46.032
5120,41.974
5121,44.277
5122,50.404
5123,61.933
5124,66.701
5125,64.866
5126,62.714
5127,61.668
5128,61.349
5129,60.581
5130,63.571
5131,66.907
5132,68.060
5133,67.285
5134,65.857
5135,64.783
5136,63.642
5137,62.500
5138,61.987
5139,61.701
5140,61.363
5141,60.294
5142,59.174
5143,57.993
5144,57.981
5145,60.957
5146,64.249
5147,66.737
5148,67.585
5149,67.558
5150,66.211
5151,65.444
5152,64.067
5153,63.525
5154,63.329
5155,65.270
5156,66.103
5157,63.973
5158,61.674
5159,59.657
5160,59.106
5161,60.498
5162,60.090
5163,60.388
5164,61.352
5165,63.353
5166,67.978
5167,73.049
5168,74.042
5169,71.495
5170,71.023
5171,70.203
5172,69.606
5173,69.431
5174,68.868
5175,68.360
5176,68.049
5177,67.758
5178,67.299
5179,67.138
5180,68.065
5181,68.925
5182,69.831
5183,70.333
5184,70.031
5185,69.303
5186,69.609
5187,69.336
5188,68.388
5189,67.584
5190,66.959
5191,67.310
5192,67.200
5193,66.233
5194,66.188
5195,66.325
5196,67.407
5197,68.259
5198,67.594
5199,65.969
5200,64.792
5201,65.451
5202,66.737
5203,66.414
5204,67.775
5205,69.502
5206,67.790
5207,63.971
5208,63.728
5209,64.109
5210,61.174
5211,61.862
5212,65.292
5213,69.927
5214,72.139
5215,70.392
5216,69.629
5217,68.785
5218,66.280
5219,65.517
5220,65.205
5221,64.293
5222,64.092
5223,63.930
5224,64.012
5225,64.085
5226,63.569
5227,63.174
5228,62.295
5229,61.831
5230,60.520
5231,59.615
5232,59.664
5233,60.247
5234,61.530
5235,63.425
5236,63.837
5237,63.212
5238,62.014
5239,61.124
5240,59.830
5241,58.131
5242,57.663
5243,56.823
5244,55.710
5245,54.874
5246,53.296
5247,52.653
5248,52.922
5249,55.571
5250,56.451
5251,55.755
5252,55.128
5253,55.490
5254,55.390
5255,56.227
5256,57.704
5257,59.370
5258,59.911
5259,59.602
5260,58.433
5261,58.000
5262,58.189
5263,56.852
5264,56.694
5265,58.540
5266,58.496
5267,58.520
5268,59.154
5269,60.380
5270,61.063
5271,61.095
5272,60.601
5273,59.058
5274,59.182
5275,59.663
5276,59.653
5277,60.178
5278,62.420
5279,64.882
5280,65.320
5281,64.217
5282,64.632
5283,66.494
5284,66.105
5285,62.332
5286,58.399
5287,57.045
5288,55.664
5289,54.797
5290,58.444
5291,62.117
5292,62.720
5293,59.921
5294,55.074
5295,49.906
5296,47.964
5297,51.597
5298,56.100
5299,60.329
5300,60.258
5301,57.307
5302,53.522
5303,52.194
5304,52.948
5305,54.131
5306,54.340
5307,54.012
5308,52.752
5309,52.143
5310,54.160
5311,55.917
5312,54.907
5313,52.465
5314,51.497
5315,51.551
5316,50.352
5317,50.084
5318,50.006
5319,50.000
5320,49.997
5321,49.468
5322,50.534
5323,51.897
5324,52.560
5325,52.541
5326,51.534
5327,50.576
5328,49.570
5329,49.355
5330,49.413
5331,49.161
5332,47.908
5333,45.916
5334,44.427
5335,44.407
5336,45.115
5337,47.995
5338,50.475
5339,51.977
5340,51.328
5341,48.612
5342,46.076
5343,45.560
5344,46.090
5345,45.257
5346,47.720
5347,50.180
5348,50.217
5349,48.257
5350,46.896
5351,45.589
5352,43.450
5353,42.385
5354,43.635
5355,45.066
5356,46.698
5357,47.340
5358,47.490
5359,46.669
5360,46.396
5361,47.102
5362,44.855
5363,43.354
5364,43.398
5365,44.792
5366,44.727
5367,43.043
5368,41.485
5369,41.737
5370,42.842
5371,43.764
5372,43.658
5373,46.005
5374,45.946
5375,43.098
5376,42.660
5377,43.940
5378,44.773
5379,44.778
5380,43.981
5381,43.877
5382,43.736
5383,43.836
5384,42.592
5385,41.302
5386,41.872
5387,43.446
5388,44.197
5389,44.138
5390,43.533
5391,41.767
5392,40.642
5393,39.656
5394,40.333
5395,40.353
5396,40.635
5397,41.154
5398,40.129
5399,39.101
5400,38.331
5401,38.591
5402,39.302
5403,39.307
5404,40.136
5405,40.176
5406,39.171
5407,38.284
5408,38.195
5409,38.760
5410,39.939
5411,41.366
5412,41.293
5413,40.620
5414,40.406
5415,40.432
5416,40.119
5417,37.514
5418,38.965
5419,39.919
5420,39.216
5421,38.288
5422,36.771
5423,35.854
5424,35.482
5425,35.767
5426,35.760
5427,36.419
5428,35.349
5429,35.476
5430,34.648
5431,31.667
5432,31.515
5433,30.882
5434,30.691
5435,31.675
5436,32.205
5437,31.416
5438,31.173
5439,29.931
5440,29.040
5441,31.284
5442,31.012
5443,30.654
5444,30.946
5445,32.386
5446,34.076
5447,35.482
5448,35.565
5449,32.825
5450,31.087
5451,29.743
5452,29.217
5453,29.656
5454,30.201
5455,32.817
5456,34.905
5457,33.737
5458,31.091
5459,29.820
5460,28.518
5461,29.780
5462,30.887
5463,29.556
5464,30.783
5465,32.579
5466,33.576
5467,34.888
5468,36.080
5469,34.684
5470,34.113
5471,34.875
5472,34.859
5473,34.586
5474,34.059
5475,35.475
5476,35.812
5477,36.828
5478,37.269
5479,35.495
5480,35.522
5481,35.495
5482,34.325
5483,33.220
5484,34.293
5485,35.568
5486,36.144
5487,35.297
5488,34.794
5489,33.988
5490,33.573
5491,33.345
5492,34.186
5493,35.820
5494,36.064
5495,35.340
5496,33.753
5497,32.324
5498,32.874
5499,33.238
5500,33.288
5501,33.483
5502,34.197
5503,36.086
5504,36.780
5505,34.594
5506,34.075
5507,33.150
5508,32.571
5509,32.756
5510,33.669
5511,34.403
5512,35.360
5513,36.234
5514,33.988
5515,31.507
5516,31.707
5517,32.660
5518,33.333
5519,33.118
5520,32.282
5521,31.864
5522,31.076
5523,31.513
5524,32.823
5525,31.812
5526,31.430
5527,33.831
5528,36.653
5529,36.346
5530,38.177
5531,38.789
5532,36.808
5533,34.881
5534,34.402
5535,35.985
5536,37.862
5537,35.450
5538,36.249
5539,36.892
5540,37.082
5541,36.931
5542,35.247
5543,33.151
5544,32.685
5545,33.798
5546,33.781
5547,33.781
5548,33.851
5549,34.335
5550,35.544
5551,36.544
5552,37.123
5553,36.424
5554,36.742
5555,36.715
5556,37.193
5557,37.705
5558,38.756
5559,39.801
5560,39.261
5561,35.682
5562,35.333
5563,35.381
5564,35.681
5565,36.051
5566,35.131
5567,34.855
5568,34.990
5569,35.063
5570,35.310
5571,34.415
5572,33.951
5573,34.449
5574,34.243
5575,34.581
5576,36.427
5577,39.130
5578,38.950
5579,38.671
5580,38.872
5581,39.082
5582,38.536
5583,36.230
5584,34.919
5585,33.166
5586,33.910
5587,37.449
5588,38.580
5589,36.590
5590,35.632
5591,38.205
5592,38.784
5593,38.137
5594,38.337
5595,35.895
5596,35.297
5597,36.150
5598,36.531
5599,36.244
5600,37.413
5601,35.804
5602,36.196
5603,38.226
5604,39.797
5605,38.444
5606,35.722
5607,32.974
5608,30.474
5609,30.243
5610,31.473
5611,32.333
5612,33.831
5613,34.691
5614,35.283
5615,36.620
5616,37.432
5617,37.252
5618,36.904
5619,38.110
5620,38.968
5621,38.554
5622,40.526
5623,41.938
5624,40.879
5625,37.844
5626,35.793
5627,33.743
5628,33.233
5629,34.533
5630,35.333
5631,35.221
5632,34.395
5633,33.020
5634,32.915
5635,31.468
5636,31.263
5637,34.262
5638,36.822
5639,37.666
5640,38.411
5641,38.033
5642,37.839
5643,39.136
5644,38.527
5645,35.709
5646,33.891
5647,32.875
5648,32.165
5649,33.028
5650,35.060
5651,36.863
5652,37.618
5653,36.972
5654,34.798
5655,32.190
5656,31.496
5657,32.362
5658,32.192
5659,31.664
5660,32.781
5661,34.610
5662,35.291
5663,34.910
5664,35.217
5665,36.346
5666,35.761
5667,34.706
5668,34.526
5669,34.916
5670,35.957
5671,37.327
5672,38.220
5673,36.342
5674,36.123
5675,34.972
5676,34.111
5677,33.724
5678,33.304
5679,32.937
5680,32.817
5681,32.394
5682,32.362
5683,32.331
5684,32.237
5685,32.250
5686,33.745
5687,35.022
5688,35.565
5689,34.809
5690,34.000
5691,34.000
5692,33.877
5693,33.530
5694,34.771
5695,36.824
5696,37.528
5697,38.085
5698,38.480
5699,38.656
5700,39.403
5701,39.639
5702,38.659
5703,36.836
5704,35.675
5705,36.799
5706,35.265
5707,35.233
5708,35.496
5709,37.316
5710,40.287
5711,42.479
5712,41.521
5713,40.374
5714,37.422
5715,35.009
5716,35.182
5717,36.144
5718,37.066
5719,37.793
5720,38.820
5721,39.267
5722,38.258
5723,37.368
5724,36.700
5725,36.830
5726,36.663
5727,35.814
5728,34.960
5729,34.908
5730,36.241
5731,39.333
5732,38.339
5733,36.667
5734,36.482
5735,35.851
5736,36.913
5737,37.882
5738,37.377
5739,37.321
5740,36.816
5741,36.000
5742,36.041
5743,36.210
5744,36.291
5745,36.600
5746,35.970
5747,35.017
5748,34.692
5749,35.114
5750,35.098
5751,35.082
5752,35.164
5753,35.434
5754,34.517
5755,34.182
5756,35.182
5757,36.058
5758,36.068
5759,34.767
5760,33.958
5761,35.181
5762,35.639
5763,33.819
5764,32.639
5765,30.820
5766,30.721
5767,34.389
5768,36.786
5769,39.585
5770,38.568
5771,36.918
5772,35.887
5773,34.988
5774,34.942
5775,34.933
5776,35.147
5777,36.177
5778,37.045
5779,37.481
5780,37.882
5781,35.498
5782,33.099
5783,33.433
5784,34.724
5785,33.481
5786,33.642
5787,33.983
5788,35.128
5789,36.585
5790,37.225
5791,36.823
5792,36.159
5793,37.096
5794,38.241
5795,39.440
5796,37.662
5797,33.703
5798,30.725
5799,31.443
5800,33.889
5801,36.028
5802,35.591
5803,34.499
5804,32.052
5805,30.001
5806,30.288
5807,32.206
5808,33.319
5809,30.303
5810,27.901
5811,28.775
5812,30.966
5813,31.061
5814,29.674
5815,29.333
5816,29.614
5817,31.142
5818,31.812
5819,30.943
5820,31.044
5821,32.731
5822,32.714
5823,32.824
5824,34.036
5825,32.585
5826,32.313
5827,32.614
5828,31.507
5829,29.733
5830,28.518
5831,28.593
5832,28.893
5833,31.000
5834,30.846
5835,29.908
5836,29.062
5837,29.224
5838,30.236
5839,31.043
5840,31.223
5841,32.149
5842,31.277
5843,30.831
5844,30.000
5845,30.155
5846,31.032
5847,31.835
5848,32.498
5849,31.498
5850,30.667
5851,30.696
5852,31.027
5853,31.875
5854,31.686
5855,30.499
5856,29.988
5857,31.393
5858,30.166
5859,29.166
5860,28.445
5861,29.167
5862,30.167
5863,31.105
5864,31.616
5865,31.501
5866,30.834
5867,29.834
5868,29.000
5869,29.077
5870,29.565
5871,30.000
5872,29.835
5873,28.913
5874,28.622
5875,29.368
5876,28.671
5877,26.903
5878,26.622
5879,27.653
5880,27.189
5881,27.748
5882,27.989
5883,27.890
5884,27.874
5885,29.445
5886,30.223
5887,29.715
5888,28.288
5889,28.551
5890,28.698
5891,29.844
5892,31.638
5893,32.308
5894,32.141
5895,31.877
5896,31.876
5897,31.819
5898,31.594
5899,29.952
5900,28.136
5901,27.177
5902,26.505
5903,27.654
5904,29.583
5905,31.160
5906,31.848
5907,30.439
5908,26.995
5909,26.404
5910,27.894
5911,27.035
5912,25.912
5913,28.169
5914,28.419
5915,29.994
5916,31.284
5917,32.650
5918,31.524
5919,28.759
5920,27.483
5921,27.555
5922,26.926
5923,26.718
5924,27.006
5925,27.022
5926,27.038
5927,26.993
5928,26.636
5929,26.661
5930,27.693
5931,28.584
5932,28.750
5933,29.421
5934,30.513
5935,29.406
5936,28.384
5937,29.362
5938,27.297
5939,27.667
5940,27.759
5941,28.182
5942,27.414
5943,26.025
5944,26.111
5945,26.616
5946,26.308
5947,26.123
5948,26.388
5949,26.404
5950,26.382
5951,26.051
5952,25.347
5953,25.881
5954,25.402
5955,26.358
5956,26.516
5957,26.552
5958,26.972
5959,28.667
5960,28.487
5961,27.230
5962,25.307
5963,23.481
5964,22.667
5965,22.819
5966,23.826
5967,24.842
5968,25.713
5969,25.778
5970,25.648
5971,24.892
5972,26.254
5973,29.830
5974,31.526
5975,32.363
5976,32.989
5977,31.661
5978,30.129
5979,30.366
5980,29.783
5981,29.124
5982,28.631
5983,27.095
5984,27.961
5985,27.977
5986,28.094
5987,28.616
5988,28.213
5989,27.574
5990,26.967
5991,26.331
5992,25.659
5993,26.478
5994,26.121
5995,26.137
5996,26.372
5997,27.670
5998,27.773
5999,28.122
6000,27.828
6001,28.798
6002,28.829
6003,29.008
6004,29.893
6005,29.779
6006,28.476
6007,25.375
6008,24.104
6009,26.812
6010,27.915
6011,29.391
6012,29.262
6013,28.278
6014,27.327
6015,26.553
6016,25.902
6017,26.298
6018,27.170
6019,27.207
6020,27.333
6021,27.333
6022,27.396
6023,27.882
6024,28.657
6025,28.758
6026,29.349
6027,27.384
6028,25.671
6029,25.675
6030,25.639
6031,25.309
6032,23.853
6033,26.411
6034,27.501
6035,28.801
6036,30.145
6037,28.538
6038,25.743
6039,24.739
6040,25.200
6041,25.072
6042,25.287
6043,26.519
6044,27.225
6045,27.600
6046,27.515
6047,26.789
6048,26.244
6049,27.857
6050,26.733
6051,24.978
6052,24.667
6053,24.806
6054,25.749
6055,26.300
6056,26.622
6057,26.144
6058,25.259
6059,25.805
6060,26.667
6061,26.528
6062,25.529
6063,24.743
6064,25.157
6065,24.828
6066,26.482
6067,30.249
6068,29.600
6069,28.756
6070,26.832
6071,23.702
6072,24.303
6073,26.045
6074,26.433
6075,28.992
6076,29.957
6077,29.048
6078,28.329
6079,25.949
6080,25.829
6081,24.815
6082,24.883
6083,25.726
6084,26.694
6085,27.636
6086,28.457
6087,29.385
6088,29.668
6089,26.199
6090,25.331
6091,25.332
6092,25.333
6093,25.333
6094,25.340
6095,25.654
6096,27.344
6097,27.428
6098,27.444
6099,27.443
6100,27.333
6101,27.333
6102,27.575
6103,29.383
6104,30.712
6105,29.436
6106,29.995
6107,29.103
6108,27.340
6109,25.619
6110,25.858
6111,27.512
6112,28.711
6113,28.984
6114,29.016
6115,29.414
6116,29.936
6117,29.921
6118,29.905
6119,29.961
6120,29.953
6121,26.857
6122,26.775
6123,26.204
6124,25.333
6125,25.592
6126,27.649
6127,29.890
6128,30.660
6129,29.857
6130,28.250
6131,26.984
6132,26.750
6133,27.419
6134,28.111
6135,28.967
6136,29.043
6137,29.539
6138,28.507
6139,27.303
6140,26.319
6141,25.234
6142,23.667
6143,23.885
6144,25.654
6145,27.543
6146,27.682
6147,27.902
6148,28.646
6149,27.696
6150,26.665
6151,25.752
6152,25.651
6153,25.332
6154,25.338
6155,25.385
6156,25.397
6157,25.501
6158,26.566
6159,28.294
6160,29.038
6161,28.209
6162,27.118
6163,25.606
6164,25.598
6165,26.435
6166,27.240
6167,27.915
6168,27.816
6169,27.363
6170,27.590
6171,27.517
6172,26.788
6173,25.905
6174,25.615
6175,25.292
6176,25.432
6177,28.823
6178,29.961
6179,31.491
6180,29.345
6181,26.380
6182,25.879
6183,25.177
6184,26.359
6185,25.496
6186,25.752
6187,27.648
6188,28.463
6189,27.773
6190,26.960
6191,27.382
6192,27.799
6193,28.214
6194,27.333
6195,27.333
6196,27.413
6197,28.000
6198,28.007
6199,28.008
6200,27.874
6201,28.779
6202,28.918
6203,28.317
6204,27.301
6205,26.401
6206,25.581
6207,26.179
6208,26.313
6209,27.108
6210,26.229
6211,25.424
6212,25.516
6213,26.333
6214,26.217
6215,25.220
6216,24.575
6217,26.449
6218,27.449
6219,28.333
6220,28.218
6221,27.110
6222,25.408
6223,25.322
6224,25.345
6225,26.333
6226,26.350
6227,26.498
6228,26.493
6229,26.241
6230,25.546
6231,25.474
6232,24.908
6233,25.791
6234,27.674
6235,30.447
6236,31.182
6237,29.660
6238,26.812
6239,25.356
6240,25.442
6241,26.138
6242,27.306
6243,28.161
6244,28.017
6245,26.924
6246,25.473
6247,24.946
6248,24.613
6249,25.431
6250,25.164
6251,26.676
6252,28.500
6253,29.000
6254,29.045
6255,29.568
6256,30.779
6257,28.850
6258,27.438
6259,25.564
6260,24.800
6261,25.738
6262,25.970
6263,25.709
6264,25.425
6265,24.963
6266,26.680
6267,27.712
6268,28.635
6269,28.558
6270,27.462
6271,25.330
6272,23.716
6273,24.200
6274,25.000
6275,25.000
6276,25.102
6277,26.068
6278,27.087
6279,28.106
6280,28.535
6281,24.650
6282,24.742
6283,25.579
6284,25.725
6285,26.617
6286,26.701
6287,26.707
6288,26.545
6289,25.136
6290,25.000
6291,25.125
6292,26.431
6293,28.514
6294,29.102
6295,27.790
6296,26.000
6297,26.000
6298,25.975
6299,25.770
6300,25.764
6301,25.631
6302,25.204
6303,24.318
6304,24.714
6305,26.593
6306,26.637
6307,27.020
6308,25.988
6309,25.005
6310,24.564
6311,25.052
6312,25.621
6313,26.479
6314,25.898
6315,25.000
6316,25.000
6317,25.102
6318,26.062
6319,26.694
6320,27.257
6321,27.024
6322,27.308
6323,26.903
6324,26.147
6325,25.189
6326,25.000
6327,25.767
6328,26.700
6329,26.900
6330,25.900
6331,24.900
6332,23.900
6333,23.100
6334,24.199
6335,26.099
6336,26.911
6337,26.084
6338,26.061
6339,25.901
6340,24.901
6341,24.000
6342,24.000
6343,24.012
6344,24.221
6345,26.000
6346,26.000
6347,26.000
6348,26.000
6349,26.000
6350,26.000
6351,26.000
6352,26.082
6353,26.829
6354,26.716
6355,25.797
6356,25.770
6357,25.740
6358,26.344
6359,25.501
6360,24.087
6361,25.273
6362,24.257
6363,23.336
6364,23.353
6365,23.667
6366,23.667
6367,23.629
6368,23.383
6369,24.614
6370,25.094
6371,26.000
6372,25.906
6373,24.952
6374,24.474
6375,24.237
6376,24.554
6377,22.628
6378,21.183
6379,20.760
6380,21.883
6381,24.057
6382,24.574
6383,23.848
6384,22.489
6385,24.029
6386,24.395
6387,25.314
6388,25.585
6389,25.977
6390,25.691
6391,24.909
6392,23.727
6393,20.909
6394,20.016
6395,20.236
6396,21.000
6397,21.090
6398,22.090
6399,22.910
6400,22.076
6401,22.697
6402,20.951
6403,21.057
6404,21.894
6405,20.999
6406,21.208
6407,23.148
6408,24.225
6409,26.146
6410,26.998
6411,26.792
6412,24.760
6413,22.601
6414,22.191
6415,24.842
6416,26.768
6417,27.722
6418,26.550
6419,23.825
6420,21.846
6421,20.254
6422,20.380
6423,21.658
6424,22.577
6425,22.231
6426,21.276
6427,20.723
6428,21.387
6429,22.318
6430,22.667
6431,22.581
6432,21.703
6433,22.159
6434,22.706
6435,23.184
6436,23.724
6437,24.509
6438,24.440
6439,23.495
6440,23.078
6441,23.954
6442,24.004
6443,24.304
6444,24.667
6445,24.613
6446,23.931
6447,22.887
6448,21.621
6449,21.750
6450,22.391
6451,23.619
6452,24.484
6453,24.299
6454,25.000
6455,25.017
6456,25.107
6457,24.173
6458,24.213
6459,24.684
6460,22.516
6461,19.810
6462,18.907
6463,18.935
6464,19.163
6465,20.399
6466,21.407
6467,22.342
6468,22.304
6469,22.063
6470,22.923
6471,21.970
6472,20.965
6473,19.824
6474,19.757
6475,19.667
6476,19.677
6477,19.880
6478,20.610
6479,19.970
6480,20.430
6481,22.209
6482,22.208
6483,22.000
6484,21.980
6485,21.727
6486,21.733
6487,22.054
6488,22.679
6489,22.612
6490,22.000
6491,21.923
6492,20.974
6493,20.743
6494,21.743
6495,22.776
6496,24.140
6497,24.464
6498,24.520
6499,24.924
6500,23.924
6501,22.924
6502,22.000
6503,22.000
6504,21.968
6505,21.622
6506,21.975
6507,21.592
6508,20.789
6509,22.422
6510,23.642
6511,23.205
6512,21.469
6513,22.666
6514,22.000
6515,22.000
6516,22.000
6517,22.073
6518,23.000
6519,23.000
6520,22.866
6521,21.165
6522,21.338
6523,22.113
6524,21.935
6525,21.083
6526,21.067
6527,21.946
6528,22.000
6529,21.928
6530,20.929
6531,20.077
6532,21.138
6533,22.710
6534,23.518
6535,22.703
6536,22.152
6537,23.526
6538,21.456
6539,18.587
6540,17.451
6541,16.615
6542,17.382
6543,17.675
6544,18.591
6545,17.484
6546,16.622
6547,16.000
6548,17.306
6549,19.008
6550,19.667
6551,19.667
6552,19.698
6553,20.122
6554,19.835
6555,18.819
6556,17.107
6557,15.643
6558,14.825
6559,14.337
6560,13.554
6561,15.088
6562,15.568
6563,16.596
6564,18.033
6565,18.147
6566,17.097
6567,15.151
6568,13.844
6569,13.718
6570,14.389
6571,13.958
6572,12.921
6573,11.638
6574,11.403
6575,12.518
6576,13.505
6577,13.436
6578,11.345
6579,11.751
6580,13.025
6581,13.034
6582,12.391
6583,11.234
6584,14.558
6585,12.927
6586,12.923
6587,14.902
6588,13.812
6589,11.369
6590,10.642
6591,13.333
6592,13.332
6593,13.329
6594,13.354
6595,13.580
6596,12.507
6597,10.720
6598,10.729
6599,11.667
6600,11.728
6601,12.659
6602,12.469
6603,11.401
6604,9.606
6605,8.678
6606,8.936
6607,10.061
6608,10.899
6609,9.288
6610,8.617
6611,9.050
6612,10.709
6613,11.333
6614,11.034
6615,11.706
6616,12.227
6617,10.820
6618,9.240
6619,8.632
6620,8.148
6621,9.171
6622,10.251
6623,10.893
6624,11.184
6625,8.304
6626,7.794
6627,6.868
6628,6.910
6629,7.341
6630,7.527
6631,8.057
6632,8.883
6633,6.963
6634,7.018
6635,7.667
6636,7.705
6637,8.434
6638,9.779
6639,11.723
6640,12.555
6641,10.680
6642,10.936
6643,11.678
6644,11.861
6645,11.846
6646,11.821
6647,11.667
6648,11.612
6649,10.667
6650,10.667
6651,10.721
6652,11.721
6653,12.667
6654,12.665
6655,12.594
6656,11.666
6657,11.667
6658,11.718
6659,12.623
6660,12.607
6661,12.538
6662,11.509
6663,10.281
6664,9.346
6665,9.650
6666,10.238
6667,8.538
6668,9.302
6669,9.422
6670,8.810
6671,11.431
6672,11.441
6673,11.800
6674,10.159
6675,10.499
6676,11.698
6677,10.565
6678,8.649
6679,8.387
6680,9.866
6681,9.061
6682,9.106
6683,9.617
6684,8.617
6685,7.568
6686,5.641
6687,5.206
6688,6.222
6689,7.212
6690,7.663
6691,7.538
6692,7.146
6693,8.129
6694,9.113
6695,10.031
6696,9.667
6697,9.619
6698,8.667
6699,8.667
6700,8.681
6701,8.954
6702,8.985
6703,9.969
6704,10.895
6705,10.620
6706,9.713
6707,10.676
6708,10.842
6709,10.780
6710,9.810
6711,9.800
6712,9.794
6713,7.763
6714,7.788
6715,8.667
6716,8.622
6717,7.668
6718,7.684
6719,7.712
6720,8.637
6721,8.332
6722,8.244
6723,7.333
6724,7.392
6725,8.710
6726,9.667
6727,9.672
6728,9.717
6729,7.660
6730,7.456
6731,6.710
6732,7.709
6733,8.709
6734,9.709
6735,10.677
6736,10.883
6737,9.697
6738,10.377
6739,10.625
6740,9.625
6741,8.667
6742,8.652
6743,8.301
6744,8.749
6745,10.650
6746,10.196
6747,9.181
6748,8.183
6749,7.707
6750,8.687
6751,9.216
6752,10.232
6753,11.189
6754,10.838
6755,12.183
6756,10.805
6757,9.852
6758,9.185
6759,6.667
6760,6.705
6761,7.667
6762,7.705
6763,8.667
6764,8.694
6765,9.409
6766,9.667
6767,9.638
6768,8.878
6769,8.599
6770,6.848
6771,6.735
6772,8.516
6773,8.603
6774,6.920
6775,7.062
6776,8.885
6777,9.707
6778,8.723
6779,8.622
6780,8.603
6781,7.667
6782,7.627
6783,6.572
6784,4.829
6785,8.583
6786,7.699
6787,8.587
6788,8.621
6789,7.306
6790,5.505
6791,5.514
6792,6.513
6793,6.949
6794,6.148
6795,6.437
6796,7.417
6797,7.650
6798,7.135
6799,6.676
6800,7.030
6801,9.158
6802,9.128
6803,8.981
6804,8.646
6805,8.003
6806,7.019
6807,6.048
6808,5.543
6809,6.833
6810,7.766
6811,7.606
6812,7.636
6813,9.991
6814,9.425
6815,7.472
6816,7.456
6817,7.457
6818,8.013
6819,8.426
6820,8.970
6821,7.989
6822,7.629
6823,7.312
6824,7.333
6825,7.000
6826,7.009
6827,7.302
6828,8.008
6829,8.249
6830,8.226
6831,7.978
6832,7.201
6833,7.185
6834,7.169
6835,7.153
6836,7.137
6837,7.121
6838,7.096
6839,6.756
6840,6.738
6841,6.667
6842,6.650
6843,6.052
6844,7.000
6845,7.033
6846,8.000
6847,7.975
6848,7.052
6849,7.000
6850,7.000
6851,7.000
6852,7.000
6853,7.000
6854,7.000
6855,7.000
6856,6.975
6857,6.000
6858,6.025
6859,6.994
6860,6.755
6861,6.745
6862,6.993
6863,6.714
6864,6.952
6865,5.016
6866,5.683
6867,6.676
6868,8.023
6869,8.977
6870,7.963
6871,6.387
6872,5.023
6873,6.010
6874,6.503
6875,8.022
6876,9.022
6877,9.978
6878,8.956
6879,6.956
6880,4.993
6881,4.688
6882,5.679
6883,6.278
6884,6.288
6885,5.992
6886,5.645
6887,5.014
6888,5.704
6889,6.293
6890,6.272
6891,6.000
6892,6.000
6893,6.000
6894,6.000
6895,6.000
6896,6.000
6897,6.019
6898,7.003
6899,7.096
6900,5.097
6901,3.985
6902,3.189
6903,4.086
6904,4.928
6905,4.000
6906,4.000
6907,4.018
6908,5.027
6909,6.025
6910,6.000
6911,5.999
6912,5.911
6913,5.002
6914,5.105
6915,5.121
6916,5.135
6917,5.000
6918,4.981
6919,3.851
6920,3.859
6921,3.357
6922,3.156
6923,3.248
6924,3.276
6925,4.015
6926,5.000
6927,5.015
6928,6.000
6929,5.985
6930,4.989
6931,4.250
6932,4.275
6933,5.272
6934,5.274
6935,4.661
6936,4.231
6937,5.667
6938,5.671
6939,6.007
6940,6.488
6941,7.000
6942,6.987
6943,5.994
6944,5.566
6945,4.253
6946,3.283
6947,3.433
6948,4.447
6949,5.779
6950,5.765
6951,5.004
6952,5.282
6953,4.548
6954,4.524
6955,5.251
6956,6.000
6957,5.998
6958,5.806
6959,5.822
6960,5.836
6961,5.656
6962,4.665
6963,4.552
6964,4.569
6965,4.667
6966,4.743
6967,5.666
6968,5.626
6969,5.000
6970,4.991
6971,4.000
6972,4.009
6973,5.009
6974,6.008
6975,7.000
6976,6.990
6977,5.774
6978,5.667
6979,5.674
6980,6.659
6981,5.652
6982,3.662
6983,3.000
6984,3.010
6985,4.470
6986,4.250
6987,4.000
6988,4.000
6989,4.004
6990,4.681
6991,4.000
6992,4.006
6993,5.022
6994,3.667
6995,3.665
6996,3.388
6997,2.384
6998,2.676
6999,4.544
7000,4.998
7001,4.495
7002,5.509
7003,6.004
7004,6.998
7005,6.442
7006,5.426
7007,4.414
7008,4.396
7009,3.667
7010,3.679
7011,7.314
7012,6.667
7013,6.665
7014,5.964
7015,4.003
7016,5.002
7017,5.995
7018,4.000
7019,4.004
7020,5.796
7021,7.476
7022,7.493
7023,8.348
7024,8.522
7025,7.666
7026,6.666
7027,5.667
7028,5.588
7029,6.603
7030,6.619
7031,5.999
7032,4.032
7033,6.000
